752.56
606.53
542.22
333.99
368.20
421.14
487.21
453.01
452.80
286.80
302.64
362.42
506.49
1714.49
589.64
475.21
405.40
287.66
325.85
337.79
380.87
516.91
564.29
367.38
444.05
473.15
834.20
548.56
566.67
461.79
516.00
660.67
937.78
969.02
614.28
276.12
409.38
426.78
409.50
416.28
334.46
401.95
529.77
743.53
1030.80
1648.43
2400.23
2673.58
1827.20
402.21
1243.71
1453.92
979.00
873.07
1588.91
1881.53
672.70
647.17
903.12
790.10
652.16
551.00
1464.06
390.84
361.25
218.80
489.66
549.29
532.96
617.85
432.52
343.30
315.20
234.23
304.62
723.85
822.32
838.53
819.30
766.18
699.78
380.48
381.46
1154.87
1369.61
1055.91
319.91
1356.57
865.19
1237.79
1195.08
940.15
309.70
499.29
844.56
499.54
251.94
654.48
935.78
1760.75
884.64
798.19
573.42
968.48
1117.86
739.76
470.77
296.62
234.13
329.32
240.80
3028.17
451.10
325.70
243.40
756.02
782.85
280.57
469.94
358.85
195.15
248.71
618.63
698.03
1201.47
476.50
309.02
531.45
926.95
1241.80
1582.98
972.48
418.07
471.73
1249.07
1323.04
1272.98
544.75
230.04
246.10
317.61
390.98
430.68
447.89
423.35
388.43
413.49
710.91
1726.29
1038.11
1039.24
633.34
792.80
712.77
374.07
385.80
319.07
639.79
735.58
464.81
1303.03
331.02
321.51
533.00
753.25
794.45
758.98
651.61
434.81
496.23
545.71
573.56
559.80
963.22
667.63
260.64
570.74
836.46
645.49
499.80
529.38
528.33
411.08
327.18
264.29
368.58
473.66
396.88
492.95
457.59
387.46
414.18
528.20
633.53
821.51
797.58
537.29
352.42
502.75
378.78
486.34
1236.84
1718.46
1116.47
559.86
338.40
453.46
618.90
698.28
518.57
359.71
851.63
978.46
1049.20
456.50
607.79
765.63
705.85
259.07
221.17
453.98
486.56
337.84
1536.91
402.93
906.51
524.34
321.13
502.16
660.88
616.70
477.78
409.89
485.34
706.57
953.97
1068.51
774.20
395.27
502.77
885.30
1114.64
1174.00
1305.88
1126.47
722.02
420.01
1169.95
1097.21
712.69
195.48
1191.68
1748.49
1662.30
1105.17
505.58
267.05
349.47
355.08
707.19
366.27
243.98
336.19
282.54
334.88
472.55
533.57
449.42
523.07
561.04
503.58
497.16
593.70
525.10
522.77
593.98
533.17
676.90
1060.25
1266.66
1631.14
1287.01
495.95
319.58
551.89
745.48
1320.83
1016.44
366.20
434.59
486.17
614.52
621.50
535.38
649.21
774.46
1777.94
674.10
586.81
469.92
414.96
316.48
325.22
307.35
315.87
337.35
363.70
318.68
458.81
1043.26
996.12
516.95
370.76
868.11
1205.38
292.48
455.45
354.40
366.87
522.07
414.89
841.41
511.17
326.73
325.98
398.09
491.88
654.56
359.48
246.52
275.45
250.79
309.95
427.39
695.47
595.56
598.66
596.19
278.88
704.40
369.65
798.54
1133.42
1436.49
1296.23
794.74
1369.68
273.77
577.95
568.77
704.63
291.97
600.74
783.86
925.16
1065.91
1768.26
2469.42
2926.50
2326.06
809.39
928.19
1866.96
1804.41
1341.36
1046.28
727.42
486.63
638.53
630.24
763.14
452.87
255.84
565.00
366.54
478.09
397.25
538.43
653.37
626.20
483.35
406.65
2931.02
662.93
647.83
755.34
793.73
536.39
280.59
391.24
541.70
429.39
222.09
391.34
378.11
835.59
548.98
350.37
324.05
265.01
435.92
406.85
246.89
315.64
379.84
604.21
873.67
857.02
879.21
668.79
528.49
774.97
1459.76
2086.16
2523.82
1910.12
522.69
818.08
1637.45
1720.60
1363.04
1148.61
1085.20
699.15
384.24
303.82
349.43
330.98
388.93
461.22
383.91
2772.46
812.40
1229.08
1497.70
1310.02
1079.99
950.64
920.10
364.44
763.61
1870.00
2388.85
1472.49
446.81
796.14
1027.76
881.66
688.35
605.65
507.91
670.98
540.57
606.76
351.24
735.17
321.05
488.30
776.55
712.77
345.43
490.96
656.70
549.30
423.73
507.68
286.56
658.43
825.61
302.72
307.98
654.34
994.32
958.88
587.86
499.69
380.30
382.24
427.50
456.09
2862.00
441.15
503.11
387.72
267.08
308.95
263.81
431.78
920.33
972.47
680.33
553.92
615.18
934.50
442.93
255.88
373.51
190.81
591.46
733.32
563.79
336.95
317.65
340.27
376.56
318.19
420.87
455.97
320.49
349.60
327.33
336.87
388.49
537.20
654.20
771.16
743.74
760.28
402.62
351.65
451.63
230.68
349.36
560.40
585.74
762.24
755.01
673.48
372.84
233.96
313.68
2726.44
416.18
345.90
402.75
344.90
476.92
628.45
787.08
819.63
748.62
766.34
518.55
361.20
841.41
367.03
305.46
306.27
332.58
319.66
306.54
390.69
389.40
312.26
395.85
428.46
486.95
635.18
583.75
470.45
382.90
512.26
472.43
475.42
398.42
484.89
573.99
885.01
1353.24
985.91
486.40
626.12
1668.02
1297.59
351.79
382.26
370.84
275.90
363.21
479.07
451.60
526.00
602.36
750.08
574.30
484.19
326.26
244.52
272.79
365.07
309.95
316.60
326.81
350.90
2774.11
630.08
879.53
898.46
641.59
607.47
327.13
360.56
347.28
638.91
623.09
570.42
691.69
1064.18
586.54
601.50
308.58
359.15
1028.49
1674.27
1311.36
421.05
529.30
455.79
229.36
738.66
401.26
576.19
743.96
544.41
483.37
279.39
287.40
399.23
571.67
607.18
534.55
473.70
821.90
753.31
770.37
612.34
351.62
910.62
793.97
563.05
275.93
463.32
485.27
599.31
317.97
505.82
525.44
691.80
833.88
564.32
408.08
391.19
232.04
269.61
593.70
1491.60
2432.66
2787.92
1376.62
444.93
1213.60
1203.27
704.12
365.11
472.35
556.38
359.30
802.49
997.03
804.51
486.27
585.72
412.56
422.08
258.68
325.42
279.46
209.77
329.88
374.19
463.45
629.60
673.58
459.40
380.49
256.62
287.79
455.17
582.68
410.63
475.49
377.12
335.84
532.87
2663.59
593.20
585.50
531.40
415.55
440.98
601.44
902.11
1673.23
1349.16
698.63
280.48
1006.51
1302.86
755.51
309.12
304.24
410.31
309.94
310.90
417.31
500.03
338.85
532.56
328.12
731.74
330.26
352.28
452.47
224.55
266.74
390.22
238.54
402.59
398.35
416.33
478.13
538.55
813.96
784.52
738.80
524.62
410.37
381.88
393.60
395.35
432.49
679.43
1167.38
1610.94
1463.41
633.47
371.12
535.23
516.01
314.61
448.36
441.37
394.20
524.23
554.94
588.94
725.11
726.36
379.22
400.25
264.24
290.92
265.44
733.38
924.31
576.54
299.12
376.02
365.12
384.21
740.28
608.43
440.31
497.14
330.23
295.79
423.02
609.64
477.14
609.15
653.86
367.26
3599.15
513.63
502.81
570.74
535.24
424.74
402.52
377.78
510.53
412.89
315.58
353.18
401.09
863.92
766.53
830.04
693.45
509.52
298.12
498.05
311.49
312.55
263.78
285.90
371.51
576.03
844.25
715.64
611.68
1054.62
1408.54
1562.71
1049.88
435.41
1217.66
1595.22
1377.94
553.16
347.83
398.77
474.81
577.57
565.03
576.96
491.81
523.20
638.86
695.57
549.63
258.49
768.94
311.52
352.83
435.18
510.77
569.31
643.27
575.57
513.98
411.38
562.82
482.19
322.08
604.22
947.43
1116.08
1032.39
577.57
355.32
713.05
911.28
718.54
297.77
342.73
455.42
1638.51
471.88
446.41
523.33
414.12
526.47
519.99
435.62
421.50
357.84
213.52
276.76
399.95
604.81
401.61
403.28
422.71
314.71
333.88
464.29
681.53
728.31
733.14
737.94
658.47
426.27
451.94
341.63
367.45
299.92
848.89
1357.46
1483.74
1266.94
920.46
491.00
324.01
584.51
382.64
429.89
371.37
1185.87
1788.74
1791.15
918.58
315.08
514.96
799.04
734.04
522.17
753.76
673.29
759.68
961.13
882.10
799.12
922.59
775.89
462.52
360.45
881.20
1313.54
1491.41
827.52
252.04
423.12
423.69
597.69
522.03
440.24
443.41
535.77
1446.38
2572.39
2428.09
1325.96
369.83
879.95
1649.53
1341.86
616.69
352.58
334.98
277.01
346.92
575.11
567.05
445.63
1244.17
1615.92
752.28
403.07
718.61
677.08
615.32
685.75
634.20
601.75
392.55
831.98
567.09
459.92
480.88
424.48
426.33
461.29
537.60
503.95
581.50
638.99
598.95
457.71
521.30
584.35
294.92
373.06
488.29
789.95
806.24
683.73
389.54
390.04
457.43
572.53
474.44
417.68
743.47
709.75
627.18
482.22
323.25
267.80
412.76
580.19
667.39
619.55
485.60
2635.34
561.03
406.02
309.23
415.31
467.01
593.60
389.58
381.14
342.76
408.52
345.55
435.99
1000.47
673.01
713.20
838.25
786.27
424.17
416.25
425.75
756.31
839.80
793.30
326.93
374.64
457.69
389.73
565.46
628.59
811.90
621.69
749.66
796.37
579.38
397.90
322.41
307.92
2671.48
423.06
513.35
429.20
579.11
416.97
385.53
393.50
372.79
340.75
259.04
429.87
494.77
792.56
431.56
527.91
539.98
494.96
419.48
315.80
362.10
308.47
403.94
492.71
598.87
872.61
843.88
561.08
327.49
353.87
534.03
502.65
596.81
283.02
349.99
496.70
825.51
1235.16
1696.51
1985.39
1882.63
920.29
385.61
312.22
1083.24
1244.24
1530.01
838.07
366.92
356.91
721.73
274.97
566.25
893.65
728.22
341.77
632.76
650.07
397.18
267.19
304.69
333.73
408.70
639.09
390.25
601.60
824.30
824.74
530.96
426.88
573.97
336.48
322.66
209.99
531.87
686.65
716.49
509.96
449.04
505.86
736.13
1047.84
1356.16
779.37
469.61
861.31
806.88
432.89
1007.64
464.28
500.83
382.33
413.87
251.78
677.09
1008.21
497.07
378.93
546.22
385.41
411.50
628.99
694.82
665.35
600.80
309.98
318.03
378.65
296.99
493.73
636.06
535.57
289.46
2582.42
437.18
586.37
978.07
1419.34
1325.18
658.70
342.12
613.91
283.10
438.16
592.35
2606.84
829.73
597.12
411.92
307.78
476.30
599.41
538.58
295.67
558.54
802.81
742.29
414.68
881.83
654.24
962.93
739.66
329.37
721.14
1205.11
542.69
450.06
566.88
700.30
564.30
476.78
456.21
346.27
372.79
336.92
481.56
353.83
595.31
756.54
748.83
546.13
581.50
419.23
2616.46
353.00
417.49
455.89
302.96
267.02
418.34
365.59
494.32
505.79
720.76
980.79
1076.86
1361.88
427.51
310.48
665.23
702.95
253.85
346.65
678.37
638.27
435.87
329.90
357.81
2379.42
474.44
475.39
708.59
332.43
291.94
499.33
435.58
262.44
417.03
719.06
1026.05
1048.65
1577.60
1360.47
902.62
330.69
415.11
306.53
301.81
385.17
358.66
575.02
857.98
622.19
733.08
446.00
607.53
700.43
604.56
640.49
395.32
346.71
183.09
466.65
692.00
1127.90
1734.29
2381.97
2321.04
1196.75
394.05
1968.49
2260.15
1891.95
1358.84
832.38
362.32
528.69
657.53
516.48
375.11
422.82
331.46
343.34
394.66
365.23
505.23
611.83
722.92
643.93
582.36
604.44
459.52
323.72
392.81
555.05
416.07
306.81
412.98
361.04
382.12
487.84
431.41
2481.55
578.71
841.57
893.86
863.65
861.74
475.38
338.58
557.51
321.14
369.52
457.64
531.09
941.00
460.36
392.83
495.91
496.52
529.76
473.40
473.79
402.62
360.77
374.97
434.50
384.82
550.39
513.57
549.35
531.00
380.98
1041.24
752.59
345.33
492.00
619.42
667.18
827.06
2499.72
749.30
772.78
622.45
770.38
679.22
374.15
787.16
1133.76
1208.79
742.06
545.25
488.96
597.90
581.36
653.50
602.17
564.48
472.04
454.97
296.01
326.19
483.94
459.08
382.21
2407.82
392.34
388.42
397.32
514.51
626.32
558.12
677.66
540.48
406.33
283.40
368.16
963.15
2313.05
2931.61
2283.77
608.41
1075.94
1763.12
1787.49
1295.53
441.60
331.86
263.56
1631.90
704.03
1002.58
652.72
490.56
368.68
282.06
364.80
391.11
559.84
659.22
349.37
538.19
637.16
530.52
431.92
384.63
354.23
258.86
520.12
428.00
337.19
256.30
463.89
530.66
2373.60
925.43
804.14
667.69
515.88
490.37
711.74
717.09
581.96
384.59
372.81
421.91
863.85
1382.82
408.34
321.67
520.71
793.43
924.97
1054.97
1042.16
817.51
503.96
450.51
333.11
2327.14
374.58
379.37
453.16
590.16
298.88
285.79
315.44
320.45
367.11
366.41
298.82
385.35
887.75
684.64
486.26
396.03
357.08
223.35
373.32
446.77
425.94
378.32
377.18
325.21
275.80
701.05
654.79
570.64
426.05
354.85
360.46
248.48
552.96
590.86
557.10
458.97
448.78
2310.64
466.57
423.93
684.67
1044.17
1269.40
1287.22
976.73
1042.91
843.44
504.24
612.74
2272.54
2215.17
1924.50
945.49
288.09
398.15
429.92
340.38
377.64
486.40
598.70
691.54
1199.30
625.53
474.58
364.63
344.33
622.44
719.70
534.96
295.25
404.00
627.07
668.29
431.29
570.09
805.43
755.12
576.68
442.58
506.68
676.63
462.57
329.03
442.91
416.27
450.13
2249.06
587.09
555.88
390.85
314.13
353.17
286.25
500.83
485.33
566.17
1199.71
1752.49
2221.24
1987.00
752.76
548.59
1263.73
1659.31
1648.26
1205.46
715.02
361.71
382.34
408.54
1712.95
832.66
626.36
444.42
341.88
468.22
356.47
621.07
739.43
647.81
610.98
342.52
314.53
579.84
548.00
418.07
351.40
453.54
331.21
342.04
391.66
503.38
552.77
241.19
384.65
303.65
409.29
290.75
477.19
630.14
746.08
671.22
786.15
635.19
456.57
384.27
334.22
271.89
2392.26
414.78
761.55
906.55
1074.14
952.56
867.69
639.65
383.96
605.74
1100.21
865.27
390.20
601.77
411.40
336.42
294.97
272.80
448.42
405.47
397.29
505.64
553.03
563.59
439.24
2347.86
570.80
680.32
845.88
1443.80
1034.62
493.34
427.48
491.16
494.19
680.63
901.71
505.32
1111.12
2227.38
2472.21
1421.90
580.06
314.89
331.27
347.67
328.76
388.76
530.31
749.29
854.17
885.31
1025.74
636.81
244.02
602.57
819.01
456.93
300.66
662.30
850.83
1053.95
1876.05
865.07
1136.12
958.46
1023.09
1050.63
524.88
588.27
709.13
462.92
307.84
553.61
833.70
381.26
663.23
939.35
1069.43
648.40
355.04
320.58
418.23
499.41
580.68
565.52
2301.79
366.72
390.58
356.93
520.30
728.43
1029.21
697.25
394.51
664.94
1164.91
776.58
327.20
728.42
690.17
720.15
611.67
667.29
650.82
591.24
492.95
394.09
449.70
485.24
436.33
2255.74
509.70
424.08
364.80
395.67
454.43
412.91
268.95
451.70
459.63
437.58
357.09
413.03
844.16
429.25
394.70
479.97
464.55
365.61
318.28
490.19
618.02
612.47
633.60
647.20
798.41
1046.66
663.47
385.92
347.89
555.91
531.71
356.79
513.17
680.64
530.23
464.84
327.80
2256.43
576.03
944.74
1236.03
1044.65
440.00
541.65
1053.25
1155.14
790.17
397.62
519.37
1588.94
568.58
381.98
396.83
666.00
1100.39
1624.29
1922.25
1242.51
414.07
540.16
1252.08
1658.07
834.10
444.07
410.10
532.62
571.10
626.25
763.46
821.55
784.55
418.08
346.38
2237.12
492.52
511.63
414.13
241.69
432.59
655.43
807.63
499.06
396.14
385.82
306.83
387.07
783.82
285.14
381.33
437.32
641.21
662.49
602.63
545.50
562.21
537.52
533.49
567.90
460.66
758.39
873.38
1241.55
1730.89
1643.85
709.36
389.95
1109.27
1151.38
710.51
424.08
205.74
563.54
639.04
690.82
803.25
712.71
617.78
598.35
534.28
778.59
749.11
360.75
648.52
3054.99
655.16
233.75
288.38
504.46
632.24
348.53
547.79
649.28
406.64
620.99
755.91
627.21
700.11
305.53
327.34
435.35
339.65
342.54
362.97
328.86
370.34
437.69
447.55
419.92
339.76
633.41
640.94
892.95
1201.20
1299.24
910.13
352.67
576.79
898.91
670.70
319.30
641.98
1553.75
483.19
397.81
592.94
832.94
883.79
799.11
752.49
591.33
446.39
380.01
390.61
255.89
600.34
438.17
467.74
490.47
272.23
512.52
472.68
531.14
870.80
938.53
621.05
460.29
367.15
599.56
328.45
336.67
295.29
393.76
502.80
485.49
360.93
344.95
321.31
412.21
511.35
2594.22
2010.34
1045.06
384.49
1071.33
1290.40
630.49
542.05
459.94
404.87
711.42
545.87
1479.55
435.44
728.79
954.23
827.97
679.40
545.20
442.72
374.37
373.40
410.24
352.38
351.04
394.76
507.26
465.88
531.28
510.14
550.52
474.22
560.88
565.88
617.84
580.32
595.70
2143.87
438.93
349.62
343.67
459.34
531.06
567.61
565.20
541.39
345.45
494.35
394.26
421.24
1136.91
711.66
628.96
585.21
583.49
341.87
417.28
406.79
399.71
516.82
703.87
778.98
960.08
1149.82
635.24
335.99
543.51
557.75
308.13
410.22
301.13
350.43
578.74
794.92
943.71
1214.52
474.41
441.68
883.22
832.22
317.46
508.72
1092.80
1228.09
1236.46
1123.97
699.23
469.76
469.45
418.44
459.85
426.94
374.26
296.25
411.22
685.99
512.09
368.35
622.55
2309.51
987.42
865.22
458.89
303.70
353.50
366.53
739.20
571.04
455.20
415.96
286.20
638.16
1078.43
1036.75
675.65
234.29
612.48
876.30
918.81
599.77
364.88
503.14
408.25
378.21
1423.73
586.27
690.01
789.69
724.38
307.07
406.32
343.97
519.26
727.22
989.18
904.44
773.65
624.53
833.26
1138.44
1087.96
661.58
454.90
1481.23
1864.76
1272.61
663.22
538.67
2120.41
504.66
951.58
1182.02
825.99
351.21
497.56
470.28
360.65
395.98
618.79
866.55
1076.50
1354.07
1205.19
648.21
430.27
300.95
720.90
747.39
355.60
429.93
526.51
672.62
636.28
940.23
678.08
975.05
863.80
560.89
332.68
568.83
624.64
455.21
300.53
658.09
700.33
1947.44
467.36
391.68
431.77
308.48
358.67
493.58
559.99
453.71
578.36
455.19
410.17
453.17
572.40
546.73
386.04
513.41
295.09
489.76
737.02
601.06
466.55
501.01
750.37
1061.48
1115.09
1061.24
734.46
340.29
1315.43
1971.68
1646.08
316.03
540.01
856.42
731.19
474.69
1545.85
372.09
512.90
683.29
326.44
467.77
701.80
793.16
575.68
408.94
457.86
588.36
552.70
851.96
503.20
427.70
416.64
490.52
551.33
518.63
564.75
569.28
597.48
652.41
790.66
671.64
623.36
475.57
297.21
402.71
393.13
401.42
367.53
490.32
570.52
619.19
508.55
623.40
2018.23
734.07
583.73
552.45
295.17
880.13
707.21
329.46
554.72
205.69
594.32
985.68
1179.56
909.64
396.34
269.53
320.42
371.65
458.33
860.51
1336.77
1468.08
1391.94
488.06
902.63
1767.86
1593.60
931.25
250.46
545.18
639.47
511.45
395.86
378.50
383.69
566.23
545.70
836.04
350.34
265.71
252.38
511.17
681.08
907.60
879.38
591.89
314.13
773.36
624.51
204.18
562.52
568.07
913.48
1334.00
1506.32
1105.59
348.20
538.71
489.88
262.54
459.22
429.50
842.56
478.97
412.12
163.26
454.65
598.57
740.20
681.48
611.06
259.98
880.98
885.53
540.70
594.91
249.02
507.10
734.58
899.01
992.01
911.22
960.95
722.16
588.46
373.92
326.02
1921.84
379.56
383.81
400.95
413.36
440.85
343.53
413.70
205.66
437.05
384.98
265.86
478.71
978.44
421.36
414.43
387.69
579.99
873.18
885.14
551.81
428.30
597.75
758.62
751.26
644.68
519.74
553.82
593.66
583.12
232.38
773.94
1268.02
1188.30
1134.67
527.35
347.28
546.50
851.75
645.11
637.90
771.37
892.68
948.82
995.07
867.08
683.69
409.29
333.97
378.84
1812.81
457.01
249.45
472.67
804.81
1010.87
871.82
636.82
395.20
308.80
361.38
301.85
259.19
482.13
448.94
586.24
532.56
394.86
313.90
406.81
476.91
335.55
292.52
350.62
355.89
551.60
511.58
569.72
992.89
1712.15
2133.66
1645.05
543.64
972.62
1410.95
1400.72
1167.27
2970.19
422.82
505.24
614.55
414.51
601.28
490.22
521.48
394.44
450.06
617.20
611.09
662.17
762.66
689.45
657.79
476.58
272.87
279.79
312.49
557.55
562.85
622.57
465.14
390.68
1753.65
426.58
474.07
491.19
579.96
516.50
476.97
615.04
509.14
545.23
643.55
315.83
476.17
1107.93
841.21
712.92
948.54
1010.78
657.93
534.44
205.40
415.90
443.18
525.32
276.17
2718.23
1903.52
1711.96
670.79
498.42
858.34
974.04
855.44
856.72
859.47
643.50
298.89
264.31
538.36
462.48
363.90
779.13
868.43
579.85
380.92
278.20
423.34
707.32
337.82
510.99
1677.15
534.26
553.96
563.83
527.60
512.91
345.67
404.95
339.03
336.39
418.01
577.42
576.51
1106.08
506.97
496.81
370.22
524.12
439.80
337.82
441.39
374.21
534.41
1097.56
1658.73
1960.58
1199.61
458.88
785.44
580.88
427.70
552.88
419.02
263.34
610.36
614.68
488.46
276.71
351.71
265.51
231.50
299.80
443.77
327.77
384.18
460.07
507.27
365.32
395.46
365.56
1941.01
1180.81
1361.51
1032.10
416.27
451.08
756.02
352.08
412.29
592.75
650.15
832.39
1780.40
322.49
476.91
312.64
444.00
619.47
371.89
350.83
364.46
370.85
594.90
710.58
762.49
1296.65
1049.22
949.47
728.29
465.88
557.52
555.36
366.28
748.94
789.52
517.76
236.64
1777.92
410.23
343.64
316.76
389.14
513.40
364.63
438.45
307.46
346.29
310.96
492.99
941.98
1261.06
551.07
610.44
752.77
320.41
568.97
855.10
934.88
538.97
366.81
765.65
1029.52
1663.11
513.74
686.82
926.08
827.89
980.31
724.94
771.87
658.31
669.56
732.98
416.40
512.02
658.83
527.39
778.90
1073.70
1587.98
1564.97
998.79
405.32
445.55
505.20
516.89
519.59
708.55
303.98
1177.73
2010.05
2297.58
1730.13
822.68
406.10
383.84
766.73
928.08
1342.50
1672.87
1218.22
437.03
483.76
1216.93
1356.17
779.05
322.03
487.43
506.45
602.38
1382.26
400.37
311.44
461.08
571.94
536.01
651.07
646.64
553.72
654.21
889.60
748.92
541.27
875.70
360.08
273.89
539.44
416.27
459.25
532.45
392.50
413.82
564.84
622.77
751.74
716.17
731.03
365.77
339.74
515.08
873.03
1395.56
1471.73
1189.45
697.01
415.81
408.16
1007.25
1800.87
1268.88
597.21
347.60
326.15
476.39
479.06
528.16
415.05
550.68
518.98
441.74
1412.21
898.74
956.01
836.77
407.24
634.57
667.58
738.54
664.48
619.72
271.46
464.26
326.77
544.52
543.62
372.44
728.10
820.79
737.27
675.99
662.31
298.79
494.99
346.77
670.20
1880.19
577.10
475.15
329.21
467.10
489.07
661.97
652.88
507.99
307.45
275.96
352.83
531.47
933.97
454.35
339.20
395.05
634.42
673.20
585.35
337.32
293.58
203.28
369.73
296.66
349.65
607.48
455.42
543.64
519.96
786.30
817.06
952.13
1145.27
949.84
572.26
461.99
404.32
926.87
237.31
440.56
634.61
1053.72
712.68
213.68
341.73
223.11
312.04
377.22
446.66
421.22
681.11
604.44
719.16
764.15
640.58
530.03
330.06
329.18
304.20
296.35
383.06
704.25
1734.51
611.16
268.44
593.98
496.39
507.50
471.59
353.26
501.33
689.58
546.50
272.20
464.78
905.61
686.53
876.18
867.12
635.47
388.09
344.69
414.34
599.81
593.62
1118.79
725.96
612.85
353.77
338.14
389.00
1132.14
1417.45
1354.24
679.24
344.51
466.15
285.95
298.91
258.29
588.75
625.90
730.40
645.55
744.15
891.41
925.90
964.36
466.32
409.44
654.51
322.71
835.70
1144.63
692.70
301.45
365.93
452.05
390.73
585.46
675.53
672.09
574.07
339.62
415.22
1499.16
410.95
289.12
414.47
755.27
1181.55
1498.12
1176.02
486.58
646.48
2172.27
2400.60
1608.11
919.72
1703.52
1164.88
601.16
750.29
943.12
622.70
347.24
289.75
345.58
267.82
410.42
358.57
651.55
1401.40
2016.72
2120.47
1447.81
536.99
160.35
593.68
976.60
796.79
899.90
337.18
341.85
168.23
266.79
661.13
997.84
675.12
280.04
677.62
842.84
678.51
660.12
850.02
666.07
598.21
813.14
786.92
838.62
905.29
609.44
284.00
390.63
558.13
419.89
2259.11
1632.21
770.58
491.49
300.18
523.53
324.33
436.01
227.26
363.95
372.20
222.84
335.25
1033.65
423.11
369.46
409.81
302.95
276.65
437.37
306.61
245.49
225.09
271.45
230.03
1532.15
1192.04
1654.94
1485.53
801.21
351.54
371.52
1211.76
1644.77
860.77
3111.77
3969.67
3999.78
3419.34
1313.37
672.45
1928.07
2283.83
2139.93
1988.90
1287.95
783.50
636.81
697.48
419.86
291.87
343.32
624.71
597.57
490.94
299.41
408.98
351.02
238.75
342.20
328.41
635.54
456.96
659.41
688.73
647.04
718.58
691.85
722.14
492.23
346.10
290.42
412.70
1270.17
465.37
391.15
502.62
507.42
720.41
641.25
455.18
472.79
559.21
839.57
829.33
929.80
1196.26
304.62
435.34
820.16
392.68
397.11
376.69
426.41
472.75
434.17
404.54
493.54
474.96
600.94
481.26
412.51
310.78
303.06
283.25
589.87
820.72
791.55
620.09
425.63
396.85
1246.02
443.25
464.89
532.67
458.31
383.40
386.54
358.69
444.62
495.01
327.92
322.81
440.38
845.29
417.58
479.71
687.10
714.44
737.14
663.86
472.27
267.11
252.44
313.78
406.14
737.30
1258.61
966.28
346.46
554.25
719.88
540.12
236.36
387.79
646.75
631.32
575.52
688.57
1289.97
605.27
352.53
305.76
302.26
210.85
382.44
537.46
517.25
456.08
466.09
299.38
503.33
1355.51
1389.94
1537.97
1302.26
834.33
534.69
301.39
729.75
925.45
580.25
320.31
306.17
860.97
561.78
793.41
962.77
890.84
834.33
645.87
708.80
590.15
322.12
451.11
808.17
953.57
491.40
540.34
776.95
508.44
523.59
644.44
498.00
876.76
1855.02
1567.87
710.44
244.02
726.59
295.32
730.22
1482.54
1691.15
1573.15
677.19
328.96
485.06
528.39
576.32
568.58
1574.94
393.50
425.38
432.20
644.95
842.62
871.47
686.33
312.48
224.63
271.39
408.44
489.06
517.96
343.97
272.93
373.73
351.68
455.76
412.98
396.87
370.38
557.48
717.59
680.24
812.74
722.76
384.53
423.55
756.43
550.27
315.65
371.54
313.00
231.39
424.61
322.70
492.19
2963.03
536.31
312.09
363.05
339.19
493.66
404.00
373.53
438.77
893.44
1153.12
1144.82
829.16
851.20
754.44
711.44
570.34
690.54
339.92
389.71
668.27
378.47
386.79
275.45
847.89
3549.40
1422.87
388.33
1004.24
1851.76
2012.23
1733.24
1193.83
692.29
506.83
325.74
632.92
389.12
331.16
452.85
338.89
594.86
576.65
427.37
728.30
300.10
336.21
685.64
1124.65
835.31
381.75
341.95
450.62
566.99
504.14
501.60
413.45
393.50
372.38
393.08
504.79
374.19
1487.56
499.24
509.97
656.87
424.57
199.52
402.60
305.10
914.27
1269.90
1079.55
582.66
538.91
886.36
349.55
614.73
461.88
343.55
423.03
479.19
358.88
315.84
477.59
601.31
622.71
1667.66
544.61
495.81
366.35
443.81
460.90
321.91
315.95
549.23
524.02
497.11
357.70
467.74
628.37
551.41
455.82
563.73
465.54
467.58
458.63
369.32
487.31
479.78
427.27
372.47
415.08
369.42
372.22
436.92
572.06
709.99
863.53
994.32
714.14
398.28
354.95
447.48
664.08
1203.54
673.61
430.56
294.16
705.71
694.78
345.60
611.76
754.28
728.77
666.74
446.48
286.71
878.19
383.25
598.54
522.79
252.53
635.64
879.01
1083.57
588.73
385.90
446.19
411.21
551.17
741.96
796.57
773.59
757.66
691.47
704.17
668.36
639.91
682.58
422.84
336.61
669.62
1753.52
350.83
260.07
490.37
514.37
336.41
316.54
365.57
402.73
457.76
509.40
303.09
544.15
1568.50
1519.87
544.22
585.87
1170.21
1106.04
329.76
727.82
935.52
1369.17
1344.59
698.57
371.93
495.60
485.92
551.51
331.48
297.65
386.49
239.31
292.02
332.79
667.70
759.39
1608.93
356.32
404.88
216.25
537.53
1061.45
1195.12
641.36
232.80
856.65
1030.35
284.52
2018.53
1386.17
1144.84
644.97
450.89
493.51
652.30
536.42
303.74
295.00
395.98
239.44
3143.24
532.60
515.41
387.66
453.93
378.08
301.71
687.07
264.17
290.54
697.56
754.63
780.67
1265.46
596.04
450.92
388.51
348.65
489.72
912.32
622.52
380.54
277.26
637.85
713.83
387.82
496.76
489.28
667.55
691.33
687.18
664.89
545.89
591.08
419.32
572.69
456.45
546.39
2859.13
957.26
1076.64
932.91
243.34
622.07
703.63
675.64
463.49
430.04
278.21
436.78
689.60
703.71
639.03
523.08
497.73
380.77
370.44
399.61
258.92
382.81
828.83
1310.70
1616.67
2236.54
1037.45
719.90
657.93
408.59
292.22
609.18
994.53
1216.02
887.45
984.07
818.20
579.75
459.68
494.96
460.51
566.84
439.60
157.81
458.18
685.15
420.01
391.32
342.53
523.41
651.14
504.70
772.65
910.79
893.91
435.12
317.65
330.75
301.63
386.65
395.89
361.78
2761.15
970.88
904.35
609.49
457.59
313.58
363.85
300.96
255.72
349.49
256.88
283.08
687.52
1555.69
1438.11
1001.41
754.59
325.87
546.26
604.28
369.69
302.42
297.13
262.67
410.65
1129.22
1094.95
974.82
492.70
325.44
921.58
1241.15
774.42
322.30
693.33
993.33
791.89
1018.77
461.21
260.15
254.96
490.08
589.03
672.38
356.90
315.19
686.09
610.39
321.20
332.47
485.43
475.68
675.21
973.34
1364.35
976.16
298.67
512.89
291.90
644.96
695.48
558.21
736.71
406.50
340.02
528.56
727.67
538.07
485.16
528.34
566.87
493.61
584.60
407.22
228.78
446.45
372.60
376.73
489.90
683.64
597.12
491.81
504.86
868.82
559.19
515.23
438.57
470.28
883.77
984.55
641.63
339.80
251.36
308.63
407.89
496.04
531.92
531.31
394.59
332.49
1611.00
751.89
701.71
406.36
1444.55
1591.81
846.99
391.42
474.96
442.35
396.10
433.84
2806.76
620.40
590.69
680.20
721.85
714.49
574.07
454.44
449.14
397.91
361.37
462.54
644.36
1315.28
501.70
623.53
391.42
332.02
719.16
949.64
857.21
903.80
785.85
725.51
664.80
498.73
453.47
331.42
418.83
545.27
299.03
348.25
458.48
510.10
445.04
514.24
263.63
365.75
2860.95
905.58
1068.72
609.20
335.72
926.57
764.01
329.98
328.85
538.89
625.24
410.19
401.09
414.53
296.09
464.52
644.52
808.35
699.61
848.37
946.20
703.19
340.26
1027.82
715.73
951.22
546.35
522.72
398.29
518.01
623.49
532.35
318.44
281.68
356.47
332.05
464.46
710.06
1125.95
659.96
321.46
948.42
811.77
483.85
172.57
472.93
437.02
546.21
584.54
458.74
1535.35
300.61
423.82
547.39
637.66
553.93
623.85
707.55
376.47
242.55
302.03
278.46
407.39
846.46
358.93
480.83
551.56
570.53
579.01
745.20
674.71
755.97
696.68
387.14
196.48
285.43
322.13
406.87
425.24
426.45
632.74
688.21
424.11
345.38
596.21
668.55
633.55
880.83
2996.92
2334.50
2360.18
1409.81
569.47
1994.84
2664.47
2582.83
1717.69
932.09
296.30
413.56
468.88
392.64
331.49
363.30
293.01
403.33
345.64
321.15
539.58
495.42
523.38
532.04
2789.84
636.69
682.44
838.03
821.33
847.82
939.84
926.46
1068.08
1086.05
216.06
811.96
3811.77
873.87
358.47
365.83
466.22
338.63
335.27
487.84
636.63
576.30
434.95
472.96
558.03
880.63
302.02
343.34
262.42
310.12
429.20
647.50
555.49
409.36
326.99
485.97
469.77
589.42
730.61
630.06
829.93
1015.32
1393.41
1770.83
1322.30
421.66
1108.73
2041.66
2116.07
1356.03
328.14
569.86
666.05
714.09
767.52
815.81
805.75
430.56
299.68
261.51
359.27
224.30
529.54
312.44
378.50
323.85
395.12
607.97
843.05
924.17
594.71
380.93
318.02
380.55
321.13
362.88
308.51
295.66
344.07
460.02
597.71
452.36
597.11
596.85
328.50
492.93
752.79
2698.62
1103.63
831.61
538.36
515.25
846.69
749.19
357.61
360.36
935.56
1266.51
1001.34
290.85
636.82
651.33
613.70
334.61
1273.23
1396.91
268.01
757.86
657.54
374.34
350.31
459.13
786.71
906.82
833.03
669.37
437.15
248.79
569.34
492.21
318.40
1020.31
1958.40
2338.00
2355.21
401.59
890.23
1598.05
1338.89
577.84
301.22
389.31
428.37
479.05
532.39
447.20
1638.28
346.16
428.36
321.18
319.07
471.80
549.07
572.69
552.94
437.91
340.60
324.63
242.78
651.36
299.37
643.76
1027.43
719.36
747.30
831.42
722.05
602.47
353.98
529.60
249.33
362.15
409.59
298.85
348.09
775.29
883.78
559.31
369.12
224.82
280.69
265.10
330.95
358.44
2706.72
434.08
449.70
610.31
592.30
552.55
392.03
234.22
337.06
367.33
634.16
600.67
489.61
1061.25
554.67
699.74
707.04
686.25
654.33
371.28
345.55
870.33
500.29
411.82
801.58
982.10
950.66
553.43
337.05
399.71
513.41
590.02
587.06
547.26
521.83
371.17
309.16
627.63
1140.49
330.94
567.40
766.38
788.69
438.15
228.47
418.44
419.57
504.80
573.80
434.65
273.63
357.08
359.08
347.20
810.50
1177.19
1482.12
997.83
501.88
669.78
958.27
814.59
346.71
584.48
566.01
729.52
862.60
609.39
406.28
414.84
445.93
379.20
381.13
296.86
601.59
543.92
703.25
872.01
963.37
676.34
550.84
332.57
1145.16
708.98
374.55
326.38
206.37
341.43
941.17
712.96
554.33
354.10
335.12
632.42
782.03
456.48
295.17
397.14
682.57
812.47
719.07
443.10
1049.99
1170.14
354.98
568.52
687.20
596.45
518.21
634.31
731.32
759.31
693.46
865.80
380.07
264.61
363.24
532.75
686.80
482.94
458.22
655.82
526.37
457.15
376.49
345.18
490.84
497.03
337.65
545.80
425.86
344.62
394.41
286.79
407.67
557.77
594.32
548.05
573.85
642.94
735.98
565.56
787.75
728.48
745.66
501.88
285.78
572.46
450.70
404.31
456.42
2609.67
415.84
401.51
461.78
461.96
354.61
382.62
439.37
418.04
835.79
506.85
382.63
547.20
821.94
412.31
550.48
521.04
567.52
557.93
437.44
345.57
616.40
446.71
438.30
397.34
577.12
460.73
741.67
1213.44
855.25
556.33
489.48
476.79
477.90
401.60
300.18
323.88
326.94
2834.72
282.02
333.32
454.36
506.15
573.94
518.14
338.43
354.11
421.18
499.99
420.17
300.50
974.93
534.80
417.07
628.96
615.64
429.25
411.37
389.45
538.34
466.11
508.30
445.19
405.55
676.67
809.33
881.81
919.33
293.82
1107.51
486.25
652.29
910.06
568.51
464.95
435.87
1690.04
375.59
416.67
402.46
272.68
318.41
187.64
368.24
372.50
536.90
312.28
382.38
337.96
458.70
586.27
707.13
560.52
429.42
343.59
278.52
324.10
313.74
313.97
672.82
992.96
973.12
853.80
536.18
333.58
280.41
278.99
342.69
364.98
362.18
425.67
383.65
568.15
295.81
814.91
444.98
553.89
704.32
600.42
793.02
520.67
556.92
563.85
615.26
907.08
995.30
510.60
436.13
1232.27
1449.39
1098.91
1007.96
410.85
324.53
660.87
861.96
499.18
384.85
3402.20
466.72
441.75
571.97
657.82
984.01
887.89
548.67
583.33
280.44
512.89
668.33
677.88
851.31
626.08
518.66
583.05
497.89
387.71
298.97
451.25
530.26
610.53
614.33
418.40
452.03
509.27
374.57
316.29
537.09
317.76
496.98
770.88
696.29
521.87
849.26
1240.43
1009.08
1685.08
893.20
1459.20
1408.53
538.08
589.44
925.48
1001.69
490.86
1153.62
1457.38
476.98
537.58
755.84
508.68
470.68
844.21
193.05
727.82
1574.71
2823.02
3847.98
3472.20
1915.53
434.55
1955.04
2526.48
2624.51
1992.68
870.73
444.19
707.89
545.36
316.09
348.35
1731.83
300.29
248.52
358.64
338.66
311.25
425.70
514.85
681.98
807.40
563.01
494.19
270.64
498.47
504.77
1094.01
1238.94
829.55
663.32
402.18
314.70
677.24
1327.00
2011.83
1446.96
530.14
774.19
984.87
923.82
826.68
685.85
421.08
488.81
819.58
1020.96
702.09
476.52
1923.79
833.29
410.95
407.70
411.79
325.23
308.37
597.91
581.02
436.67
443.89
350.97
458.59
997.02
697.40
287.55
536.03
1006.08
1286.89
1178.15
595.05
304.84
390.76
299.56
343.27
802.66
277.85
368.86
428.77
436.27
317.13
402.03
432.23
360.34
432.51
514.64
469.05
469.45
796.23
922.91
1032.89
835.55
357.64
450.14
491.97
245.67
295.78
393.87
304.53
443.55
2474.41
433.85
443.70
451.34
521.96
506.85
548.25
542.31
434.00
563.08
500.64
502.29
433.84
1104.04
634.70
476.98
245.63
473.24
333.44
192.42
401.05
580.42
618.19
693.42
659.43
665.58
732.29
495.62
559.74
450.34
273.33
494.73
594.98
373.26
419.03
518.09
566.97
861.84
2735.76
2087.86
2477.38
2228.47
1327.61
404.28
853.20
1330.09
1228.57
917.55
993.88
767.44
578.10
499.65
344.75
730.44
1336.65
1359.26
563.79
467.61
898.57
1055.11
506.93
1402.64
2320.66
2163.79
610.84
1258.25
1638.31
1637.22
1055.28
425.62
248.74
303.50
424.74
1669.39
402.85
433.52
388.27
324.33
434.32
414.58
446.37
448.27
399.06
416.66
584.21
842.92
1036.82
967.40
782.12
513.37
397.10
539.82
1322.18
899.70
380.98
425.93
608.62
596.93
933.34
677.29
767.62
885.54
455.45
463.59
411.18
423.13
355.88
356.54
531.68
405.24
221.84
336.61
434.59
550.45
510.84
503.44
384.78
513.77
494.38
567.43
353.98
450.34
386.28
2506.38
870.60
823.62
642.85
717.21
383.93
348.06
401.16
299.52
431.70
253.93
290.99
303.90
520.42
302.58
392.73
511.10
541.57
451.03
548.28
717.95
939.36
1359.39
1550.16
1758.42
2505.32
1869.00
980.81
793.75
2383.55
2837.90
1822.08
746.42
509.36
361.82
314.96
467.52
518.66
428.32
316.74
332.28
311.98
284.45
339.76
413.29
307.13
493.20
478.50
387.60
2494.96
434.77
349.54
489.58
637.70
841.81
867.35
748.60
542.72
326.02
340.02
317.83
265.70
861.80
506.34
478.67
421.86
348.18
485.83
465.09
347.99
335.47
495.58
352.41
455.94
594.55
512.60
303.94
380.85
495.30
546.47
666.85
614.38
597.59
489.40
386.68
382.44
322.10
346.10
456.54
472.11
298.82
376.85
463.88
329.84
440.43
386.30
377.07
424.77
518.78
521.63
2449.94
631.36
545.99
320.43
333.01
344.30
354.30
334.39
452.23
531.14
515.22
472.71
345.33
762.69
407.80
655.75
1069.85
1090.54
406.84
326.27
468.04
721.18
796.93
462.99
343.87
2636.74
405.34
303.39
621.56
762.29
734.28
603.07
418.63
1249.64
620.75
285.02
376.44
521.52
572.23
386.37
406.19
421.00
316.06
319.00
454.85
492.32
565.89
578.58
556.21
611.58
823.28
747.00
552.98
401.40
272.10
527.19
261.94
266.59
362.82
399.83
859.22
540.03
358.81
2563.52
457.40
593.33
868.26
994.51
746.42
498.94
400.62
980.22
1049.14
550.89
413.16
206.12
455.22
525.27
478.23
548.41
692.77
483.54
450.13
395.02
362.03
431.95
403.04
422.08
2543.80
815.45
654.31
451.31
393.58
414.03
541.18
565.89
283.04
459.13
529.68
315.03
843.37
1506.06
584.22
1059.20
1149.52
392.94
1199.62
1670.28
1671.48
896.86
280.25
290.84
507.19
669.50
630.61
353.51
365.93
290.74
369.05
308.13
451.71
452.37
602.84
631.49
573.55
2341.59
686.40
586.06
478.15
332.97
276.34
398.40
388.64
418.03
223.49
460.21
406.57
281.68
694.82
400.23
432.31
521.55
367.09
434.41
397.89
524.92
386.04
386.29
436.80
417.92
365.67
684.37
526.48
578.43
488.28
459.79
501.52
392.32
575.22
581.86
775.57
1027.03
1155.91
1055.06
385.48
385.12
488.40
720.84
334.35
271.03
348.87
292.94
404.96
528.95
564.56
565.23
672.69
394.18
438.56
352.37
432.26
328.58
369.77
374.73
333.82
485.35
414.12
367.88
430.59
688.10
656.05
784.78
827.58
574.25
447.54
379.95
294.34
454.15
394.42
535.29
577.56
2355.60
863.76
882.95
597.67
377.56
554.81
1100.63
852.20
370.18
513.20
455.94
669.75
1198.43
1954.91
2012.90
1420.13
388.67
1129.08
1756.24
1213.12
499.09
306.30
362.81
363.31
1697.25
504.17
1046.60
1470.76
1485.79
1350.64
1216.34
719.69
333.35
1377.91
1711.81
1221.40
377.99
531.85
740.73
642.98
442.51
337.45
323.29
660.55
722.98
473.75
338.24
363.80
746.88
287.27
446.70
716.84
807.69
1123.85
939.55
455.45
623.43
656.53
312.38
338.72
2903.47
637.75
413.04
368.89
550.65
363.24
439.80
628.64
688.72
652.20
557.79
487.76
369.60
805.11
438.27
340.67
413.46
1009.82
885.13
363.72
396.13
433.06
506.67
1369.10
1615.94
1176.42
770.51
511.05
475.87
356.45
410.52
284.54
363.81
307.49
318.94
302.78
406.78
458.50
823.07
426.93
354.40
515.75
504.79
391.23
402.46
496.83
525.67
477.48
374.86
364.39
502.28
760.29
531.58
461.20
379.13
314.08
348.63
449.91
569.44
627.69
609.07
441.04
482.29
363.08
526.30
652.02
591.73
557.17
517.14
381.62
456.74
478.52
480.63
486.88
422.55
389.88
2411.71
438.57
446.12
458.64
534.33
459.20
329.38
321.77
394.01
338.65
467.39
439.01
491.93
925.13
620.94
511.11
521.06
513.23
699.40
664.26
795.79
604.81
402.01
319.52
371.74
311.11
501.82
405.20
357.98
456.08
287.99
392.16
583.06
546.74
477.25
438.28
422.28
617.15
609.12
727.14
559.21
326.23
308.68
260.64
395.81
275.58
370.16
391.10
476.76
352.36
369.40
2217.26
570.21
491.15
429.08
425.46
459.30
347.94
475.42
525.63
463.22
536.91
587.15
374.90
892.29
359.67
403.79
445.37
320.42
379.03
390.95
313.21
346.72
450.82
456.49
517.88
587.79
846.91
762.93
683.49
533.12
390.27
318.12
347.81
464.25
644.53
811.56
1198.69
1270.45
988.75
574.44
319.06
619.12
1003.90
734.12
480.99
1156.44
1514.51
1294.49
352.50
1282.12
2240.51
1666.89
1353.80
665.65
366.17
283.86
372.00
510.57
718.00
854.74
851.81
555.55
858.09
366.42
424.75
494.54
506.59
461.43
328.47
328.98
294.36
511.38
473.12
544.18
401.62
630.22
830.95
1277.93
1488.36
1662.59
1451.42
1097.35
627.34
373.77
461.10
870.32
857.22
1082.49
703.82
271.53
424.95
335.61
350.21
400.36
307.12
355.70
476.02
290.45
675.96
2075.07
1303.58
1010.22
672.67
468.43
327.30
281.46
362.17
258.26
364.75
214.35
420.92
2210.59
699.30
479.67
768.35
1366.64
943.95
423.93
436.62
364.36
298.63
423.05
419.63
485.50
500.09
406.35
355.00
385.06
522.60
463.70
459.38
843.97
959.94
1074.70
746.08
329.67
1641.57
671.14
617.67
361.97
489.71
380.40
292.49
333.15
291.14
539.55
1139.44
1489.93
1303.79
666.54
324.85
434.05
600.77
737.76
579.79
347.07
375.63
433.47
511.48
665.22
820.84
1144.79
631.61
434.20
636.64
1071.67
1689.33
1254.15
401.50
1148.66
1716.68
1124.86
685.64
491.32
906.60
283.06
418.89
542.24
587.70
433.14
393.26
290.86
361.16
481.37
564.74
1879.65
763.87
885.64
1176.89
758.80
417.48
424.12
719.63
838.55
1111.89
317.03
685.45
2283.93
638.79
343.66
525.21
459.29
345.69
412.10
559.40
519.71
349.25
331.47
428.85
426.52
778.46
401.81
486.24
483.71
363.03
476.23
470.46
376.67
369.05
376.82
423.03
513.07
696.28
1579.09
2322.13
2650.56
2273.37
797.37
679.46
1539.80
1916.75
1565.86
1013.47
274.80
1525.58
874.82
1100.84
1142.11
947.11
475.44
315.63
641.54
779.38
653.25
446.12
422.94
1467.16
310.15
364.51
442.45
363.64
352.04
391.05
397.31
514.93
554.34
661.15
716.40
686.67
686.85
382.70
336.96
365.52
359.78
411.73
497.58
512.27
502.18
526.89
578.96
421.16
560.68
616.05
591.87
372.78
357.31
550.11
584.06
654.98
630.62
502.66
428.97
395.87
343.83
2110.92
340.07
447.04
291.83
328.93
434.08
268.64
358.42
598.07
631.08
577.09
541.52
574.40
1170.76
844.29
953.18
932.68
1010.55
639.04
507.99
329.62
570.86
423.21
329.75
350.29
1781.51
289.87
340.42
482.69
571.60
641.38
837.29
690.16
359.98
561.10
766.02
559.68
422.53
651.54
395.45
481.65
550.60
541.41
507.55
938.14
1303.23
1336.89
1042.32
388.59
995.39
1778.57
767.35
352.38
373.38
500.77
386.56
374.18
424.38
641.80
841.88
1390.17
1696.03
2111.64
559.90
472.75
1202.27
1000.05
508.16
356.40
260.55
408.98
503.41
508.14
552.05
1465.33
547.99
1021.51
1214.32
1000.70
729.15
437.66
329.87
459.96
375.59
262.62
374.31
1416.76
540.10
396.50
483.74
524.46
399.42
393.63
550.86
319.34
261.36
694.75
1316.66
1541.26
992.50
363.96
635.82
597.51
326.40
290.78
418.29
644.89
489.41
531.38
253.66
392.75
754.35
354.55
444.28
620.68
568.41
415.43
338.74
358.13
566.99
598.10
486.66
397.90
525.09
733.55
735.61
564.83
501.10
424.41
297.55
419.38
1109.08
587.69
325.72
378.96
323.59
2018.48
711.41
698.10
592.28
608.24
629.19
537.61
466.35
351.98
300.04
301.36
407.91
614.73
875.52
410.63
555.31
641.27
625.73
612.07
591.12
666.49
541.06
470.37
532.84
349.52
400.56
754.36
593.89
611.78
538.61
331.33
419.91
584.92
392.34
390.02
343.58
402.33
617.46
685.02
693.00
501.23
276.71
279.80
394.05
562.68
504.79
436.01
497.13
392.70
329.38
357.30
1971.02
479.51
629.76
664.80
587.87
385.68
413.74
562.55
484.75
387.81
294.80
285.73
293.55
753.87
429.68
378.77
470.33
468.67
350.77
517.19
785.97
825.92
821.10
792.62
651.02
383.90
496.64
363.26
519.63
671.08
614.71
460.65
350.71
811.98
593.06
479.79
661.05
711.91
676.84
638.91
598.58
550.66
716.32
941.92
891.51
477.83
321.44
474.05
397.91
472.80
360.67
1863.16
335.27
299.42
736.00
382.44
387.43
384.27
500.95
614.40
591.55
636.85
812.97
753.29
825.76
451.16
630.95
328.58
328.04
710.86
1278.29
1112.86
663.61
442.82
349.48
258.47
1970.23
320.63
375.40
299.90
378.72
413.46
528.95
431.84
454.34
293.13
414.76
902.80
1205.90
1264.28
491.35
360.28
249.08
307.17
318.15
200.08
354.52
254.34
386.07
320.96
267.58
2010.86
454.96
379.24
371.47
555.53
883.20
729.34
381.57
466.43
241.24
455.52
411.93
338.07
567.64
356.17
547.05
653.23
720.61
660.24
497.39
713.17
668.85
815.89
754.71
609.59
323.38
660.28
495.33
410.08
504.93
391.74
320.51
302.93
497.58
510.24
409.44
401.33
564.52
1927.74
420.26
430.51
393.20
448.40
534.50
627.12
510.40
470.58
502.74
295.75
349.11
443.80
955.86
507.70
454.62
428.35
391.09
548.62
314.84
273.25
372.67
350.71
628.46
668.04
477.40
679.13
436.13
524.06
453.36
396.60
555.73
505.20
431.16
723.82
718.72
831.53
677.30
236.14
366.48
381.81
446.05
616.92
577.79
464.31
500.22
567.48
650.44
488.19
506.79
520.52
1740.33
438.92
396.58
274.74
365.15
332.63
480.41
660.40
590.13
444.92
642.50
1125.76
764.38
505.62
310.38
373.60
374.48
442.49
568.97
580.36
408.77
369.37
465.79
305.37
610.42
526.30
535.93
785.74
860.50
1092.84
1247.81
786.06
424.98
478.97
629.31
728.51
694.34
529.99
1144.86
606.33
708.80
478.83
324.58
513.53
401.48
530.67
841.49
1034.31
801.47
703.39
412.24
360.64
474.59
524.02
881.28
773.78
619.53
542.43
373.56
772.14
1539.06
1660.43
480.19
1367.79
1330.84
1164.72
944.28
757.38
733.96
547.52
594.86
767.05
801.41
727.81
425.04
1919.96
445.26
539.96
616.91
370.52
453.61
592.75
606.97
428.67
335.05
361.40
347.37
372.65
525.76
362.52
525.17
632.07
398.13
357.31
258.74
377.44
671.14
469.97
383.81
564.02
511.47
640.26
604.53
672.83
848.52
829.88
373.55
315.47
253.03
342.50
456.51
535.34
579.39
1576.87
425.23
385.34
390.18
586.97
577.02
553.97
591.42
430.13
596.82
446.32
425.55
420.98
807.71
314.54
475.53
488.60
537.27
529.09
472.24
710.96
623.80
629.31
515.91
568.89
323.70
508.63
398.69
489.02
483.00
564.85
611.37
657.78
693.74
658.79
333.62
399.36
413.51
533.25
697.24
576.98
428.82
442.11
324.04
337.03
604.72
677.43
411.25
379.29
259.41
354.85
1645.67
435.71
776.91
1087.07
891.15
678.57
646.41
403.08
366.97
348.68
304.61
405.19
692.86
1201.33
996.83
902.85
627.77
367.07
361.39
373.42
291.63
641.88
639.35
747.73
495.25
506.94
378.74
349.50
488.15
485.15
460.67
517.75
469.28
450.14
326.40
290.81
259.10
339.58
563.34
855.48
1000.04
999.20
920.52
663.26
425.37
620.27
367.08
458.85
628.92
700.04
1800.99
983.75
410.56
313.81
440.09
740.71
759.08
693.82
619.59
623.97
659.14
535.29
304.65
697.10
725.51
451.10
263.02
272.63
290.00
402.35
327.61
251.45
275.72
289.62
235.10
1891.92
307.37
291.99
336.31
356.91
463.38
470.70
574.70
559.27
514.58
576.82
503.75
489.63
980.80
508.11
471.70
496.42
565.81
462.25
490.43
412.61
401.49
512.61
430.43
364.86
375.92
454.36
395.35
294.63
466.08
813.95
753.97
736.92
561.29
489.06
296.29
373.17
372.68
1527.72
367.11
439.10
342.32
416.14
361.55
406.59
396.97
366.45
375.19
464.54
401.89
348.24
829.06
328.05
398.19
380.37
338.33
378.77
326.38
402.47
390.44
353.49
458.90
425.54
398.51
593.81
368.12
637.86
774.49
541.88
535.85
439.53
435.08
532.24
394.27
376.59
435.27
484.18
607.11
798.14
1157.68
960.39
408.87
374.31
439.01
824.29
770.88
233.47
668.39
686.81
1701.96
1221.81
860.47
495.00
349.19
580.92
553.96
452.69
581.18
849.98
559.51
400.99
308.09
642.68
1357.33
1212.12
476.85
304.70
393.98
652.09
965.50
769.76
537.76
267.58
202.42
737.65
208.77
307.23
217.79
189.83
319.95
354.17
461.10
410.84
361.60
533.73
367.18
363.76
575.02
723.45
904.13
1189.29
1485.43
902.21
530.55
2075.15
1317.98
589.81
414.06
907.84
724.17
491.23
397.60
380.60
253.52
406.40
662.71
682.72
450.82
375.98
305.66
274.32
1346.30
581.10
499.39
637.58
540.58
522.16
543.04
580.71
266.95
289.72
207.31
260.52
346.61
1013.07
643.68
446.95
382.10
487.17
408.09
370.53
292.89
356.30
596.90
605.66
577.89
578.22
651.88
458.37
490.20
392.91
202.81
345.88
654.50
1387.51
476.99
841.12
712.93
252.21
1655.05
698.98
608.21
659.27
567.23
447.41
351.46
253.54
429.12
516.78
543.20
506.68
510.59
634.61
324.31
549.33
439.36
385.11
351.49
505.42
631.23
726.06
689.75
664.36
522.47
437.19
517.54
481.31
292.78
492.65
677.47
440.09
396.21
252.98
343.81
330.29
409.99
459.98
1308.04
488.64
600.09
615.26
546.48
471.57
393.42
429.88
320.07
374.78
434.21
432.74
458.12
1008.72
684.58
691.22
591.06
698.70
613.72
556.73
552.97
679.80
832.67
858.52
721.42
590.59
511.76
445.31
475.93
353.71
311.92
386.30
505.05
375.99
659.24
352.14
429.60
1088.70
2111.98
806.34
691.41
555.43
537.82
482.24
340.75
745.42
945.68
639.35
338.70
277.47
406.76
741.65
398.83
320.85
318.94
354.63
379.56
333.93
398.90
435.87
408.08
470.56
555.99
472.76
616.66
431.85
448.32
436.06
435.25
608.85
698.42
556.07
438.68
477.86
703.36
774.73
1711.66
522.57
212.35
278.71
598.91
1639.43
2049.65
1928.76
1046.44
448.18
1215.03
796.78
1281.14
636.56
743.80
464.26
340.93
253.11
278.73
304.57
376.54
455.35
457.07
492.92
417.53
591.13
534.34
536.66
427.73
374.56
432.68
341.20
272.02
340.08
327.06
404.93
434.39
1403.30
398.36
375.93
507.95
537.46
432.00
567.86
695.22
693.34
714.48
533.57
381.02
304.11
921.04
756.12
613.43
676.35
397.54
354.41
433.54
345.24
460.49
638.39
748.79
605.83
352.05
725.01
282.38
744.56
704.38
544.77
435.67
406.97
390.78
423.53
466.69
626.96
840.82
565.67
484.00
325.76
740.91
608.44
286.19
309.85
465.24
507.81
326.60
389.54
498.32
352.66
1281.42
476.51
484.47
551.86
624.26
753.88
586.38
553.66
584.15
513.01
222.00
386.40
607.29
1194.51
523.90
529.50
417.58
421.44
521.57
503.14
296.40
560.68
791.15
798.89
428.73
370.74
485.41
567.56
1065.98
532.57
368.10
709.20
624.72
562.85
392.26
394.81
624.29
634.91
1690.34
721.28
721.35
754.38
679.86
639.25
650.47
370.60
360.04
610.62
972.75
656.48
315.58
398.17
566.93
500.66
555.24
618.65
612.04
595.21
453.28
350.88
312.56
330.83
395.23
3331.76
373.44
476.21
482.44
425.81
396.49
361.34
404.87
242.57
457.13
902.89
762.21
625.91
863.96
420.17
459.15
240.67
547.92
555.26
505.78
526.59
568.47
655.43
836.33
835.67
967.93
1436.30
1538.47
1112.96
332.86
369.74
755.44
1060.38
1254.21
1489.56
1009.48
884.97
1703.00
670.70
320.22
947.26
1641.35
1984.30
1766.52
1995.18
2014.58
1330.22
475.91
453.90
764.52
728.47
678.14
463.45
377.54
254.98
394.52
311.48
313.45
432.04
370.78
621.48
1718.21
825.82
785.85
662.50
377.31
278.31
268.59
421.78
271.33
391.40
488.89
650.69
529.04
822.03
529.03
637.11
512.00
417.74
401.10
360.94
385.03
491.87
834.61
1120.51
1528.65
2518.83
3102.64
3782.62
3876.30
3707.51
2435.46
645.94
1271.39
2950.36
3545.20
3486.82
2972.79
2260.37
2031.46
1363.53
386.59
654.23
797.08
583.12
391.00
512.82
870.47
1093.00
1527.28
1035.15
741.27
743.72
914.20
1065.28
398.89
904.72
931.35
349.74
435.41
350.47
924.90
510.69
462.36
384.33
293.28
458.90
473.84
530.17
417.69
567.75
492.36
582.65
646.02
829.67
759.87
332.61
567.04
532.06
571.01
1215.15
1099.40
382.61
339.45
342.92
552.36
1172.77
659.23
672.29
675.62
729.90
543.97
305.43
235.31
494.97
545.32
554.69
652.81
618.09
638.91
449.26
426.08
432.52
518.43
570.70
772.32
1219.98
2228.65
3296.67
3926.76
3240.51
1696.35
434.60
1912.05
2619.04
1994.99
1873.89
2078.27
1379.42
542.63
453.17
366.41
673.71
563.65
656.92
650.67
547.35
394.04
275.93
377.66
480.05
585.68
646.34
600.32
343.25
378.69
299.32
286.30
361.25
328.94
276.43
285.94
382.18
541.07
674.93
752.15
735.04
1255.54
567.71
408.18
488.40
537.79
428.20
517.48
864.60
915.76
859.58
807.87
501.92
451.27
711.31
427.08
584.09
592.94
580.91
506.11
277.23
317.80
474.20
517.68
622.03
528.71
618.03
517.85
480.68
496.90
416.63
407.15
480.94
504.53
504.56
451.76
331.44
371.31
424.85
1225.28
510.08
557.51
563.98
409.93
321.49
377.33
403.54
416.22
544.70
700.79
1029.23
1397.50
1386.52
455.33
1157.64
1474.01
1055.40
366.44
687.07
1085.10
1082.34
686.54
654.05
1856.49
810.40
548.67
431.31
372.96
477.47
357.89
459.95
298.73
397.42
330.23
381.51
250.82
525.35
394.81
292.73
339.66
332.62
421.62
544.96
666.05
763.41
927.43
732.65
494.32
452.70
1532.85
894.05
330.15
415.77
642.80
641.20
447.38
417.50
479.19
490.16
403.37
533.79
1659.97
353.69
485.72
484.16
468.29
558.43
637.11
591.72
482.03
366.55
422.01
499.58
423.14
702.10
498.83
580.54
608.76
599.16
529.53
569.36
519.47
486.26
418.63
438.24
415.61
417.36
494.91
433.65
511.01
558.96
429.09
353.41
381.42
383.08
405.26
476.77
459.18
536.16
1232.50
572.50
489.16
525.42
708.63
743.61
613.37
533.29
342.35
375.56
373.09
370.65
283.37
650.81
336.95
333.60
497.24
731.63
696.26
453.91
301.30
361.36
473.92
650.29
468.99
436.35
558.38
543.59
595.96
555.23
489.69
544.24
553.00
379.61
311.38
512.74
523.76
537.67
469.96
593.93
582.77
639.78
640.28
451.06
455.63
423.09
519.49
571.33
541.54
643.13
467.70
2960.68
375.78
425.58
225.15
357.81
367.80
256.77
355.73
360.52
528.75
684.75
662.86
532.10
1203.71
707.25
717.51
686.95
602.94
501.02
566.59
546.02
379.98
571.65
478.02
363.12
263.70
495.20
290.79
292.87
337.97
208.78
227.03
339.56
468.94
705.64
1571.63
2503.13
2332.46
1879.85
737.04
411.77
398.70
1295.44
1912.84
1038.51
204.36
430.47
549.74
465.77
351.69
542.46
483.37
864.83
1060.09
1012.02
698.90
390.18
317.17
286.50
440.85
622.07
291.59
3415.19
994.26
930.22
550.32
243.79
213.71
219.04
440.28
329.98
402.43
405.99
278.98
357.84
666.33
394.01
388.93
496.14
392.78
437.54
536.24
543.96
589.12
646.00
549.49
523.27
611.69
728.83
783.06
743.74
684.40
754.43
568.32
419.58
334.81
295.61
247.71
401.80
493.28
2703.48
773.95
695.32
578.37
556.13
410.13
456.66
430.84
417.44
414.37
554.12
894.23
999.14
1289.95
626.98
333.38
479.91
248.58
412.67
236.82
265.75
351.06
342.56
480.04
648.80
2950.59
724.16
896.76
808.98
391.51
310.02
308.92
256.13
255.92
383.81
431.32
664.64
688.56
891.30
417.93
329.23
378.99
1111.99
1995.87
1511.10
645.41
987.33
1994.45
1933.39
1339.71
882.64
161.39
461.26
462.49
541.75
620.57
569.59
638.18
560.86
581.39
484.97
351.46
1614.50
435.89
620.84
845.45
805.77
514.87
678.71
749.85
589.02
401.92
356.31
677.90
799.12
532.48
284.80
398.70
298.24
316.88
520.68
780.68
1302.25
1783.76
1598.30
955.85
304.32
1346.60
644.15
300.65
270.43
374.19
319.68
454.80
810.40
1164.37
941.06
535.05
356.07
1545.18
347.43
346.78
280.62
435.27
676.59
700.36
532.78
399.20
768.21
1218.25
839.22
420.45
386.53
391.02
422.39
367.80
396.35
280.80
278.33
358.31
385.65
439.02
557.30
379.86
2840.76
296.89
535.44
459.67
449.90
460.33
409.24
424.38
411.90
529.26
687.50
596.67
655.12
1297.27
821.40
671.10
745.59
663.56
520.02
208.83
322.36
560.66
423.43
251.47
306.47
427.07
514.33
318.41
427.19
268.20
418.26
451.59
619.56
501.06
398.53
454.41
552.20
519.98
2869.11
443.29
344.36
268.65
370.94
516.07
947.14
1558.24
1666.29
1122.07
676.32
370.15
1909.58
1323.98
1338.06
1268.70
454.72
350.63
381.95
445.59
556.79
576.76
815.69
1019.27
1870.33
923.91
628.26
317.76
340.36
279.45
436.94
436.98
266.29
262.04
312.98
457.19
3291.80
516.09
556.86
313.74
235.41
555.75
504.06
527.52
561.36
396.48
663.28
870.43
959.70
1453.28
910.08
507.35
496.84
515.14
426.12
684.39
674.72
394.74
234.64
304.77
332.86
3132.25
566.32
574.49
287.14
346.87
394.70
447.24
494.82
624.63
462.85
476.48
428.19
430.25
793.18
278.68
425.10
399.07
380.36
504.55
466.98
461.59
497.41
621.06
674.83
621.53
529.68
547.75
374.80
608.56
665.94
537.10
310.80
501.87
340.55
460.04
691.47
857.24
748.14
504.32
397.07
451.12
359.54
402.26
390.32
380.26
383.42
313.85
281.35
277.06
370.29
454.33
2845.44
453.33
480.05
554.70
418.94
481.64
651.75
554.82
405.82
416.78
349.25
302.67
306.60
872.10
494.51
343.67
339.72
319.67
354.31
389.49
392.17
505.07
489.85
574.14
627.26
673.51
828.98
369.74
428.58
489.34
623.98
748.79
607.80
403.71
259.67
833.10
1059.33
322.62
1270.58
928.79
856.99
556.98
256.38
421.99
591.74
798.88
926.13
711.08
544.11
512.44
472.02
786.99
675.51
677.97
518.47
359.49
797.50
1164.68
1228.44
802.91
390.83
347.60
263.67
1621.91
436.46
520.77
770.44
903.83
957.97
668.48
395.82
223.56
312.82
339.98
375.15
602.14
1157.63
1358.29
1489.87
1097.81
449.34
706.29
1144.84
1112.07
841.79
776.18
604.66
1767.97
229.17
223.66
338.57
458.57
327.18
383.87
426.05
541.39
512.69
492.89
375.25
419.53
720.97
465.29
581.51
440.38
385.99
283.99
500.50
641.69
633.98
541.15
625.70
495.64
269.86
674.24
734.50
821.39
819.08
959.09
859.92
369.11
1080.72
1350.33
456.10
466.71
371.98
497.64
399.72
440.26
296.47
293.49
329.56
450.38
441.58
584.29
588.92
667.56
586.63
491.04
574.91
377.02
475.49
393.25
438.10
631.95
509.87
595.55
525.91
492.90
504.69
415.27
2794.65
469.06
417.57
363.66
324.63
492.26
534.33
516.05
471.30
290.30
331.71
396.09
430.18
844.72
447.07
450.02
476.97
593.51
535.86
276.63
244.63
398.30
308.31
407.16
481.29
471.81
610.11
294.17
340.15
262.00
339.58
447.85
387.00
528.73
344.71
446.20
527.47
437.55
551.83
559.97
377.33
482.55
726.54
729.14
715.21
632.43
341.80
208.28
341.09
291.27
267.02
2585.88
428.36
452.01
399.47
312.63
386.98
399.86
607.23
718.18
799.63
765.37
559.59
337.27
647.77
445.40
398.15
498.25
434.62
510.09
486.12
325.89
301.59
382.67
364.31
433.01
571.11
935.80
733.25
419.77
365.09
359.78
327.43
527.36
709.40
594.48
628.77
540.85
445.62
291.82
438.87
338.00
286.16
362.65
602.87
984.64
1200.18
720.48
277.80
426.41
680.27
947.09
1399.77
745.44
350.20
352.66
320.51
346.51
391.31
369.64
291.66
351.54
282.25
457.94
617.02
777.30
832.33
547.83
394.12
493.96
449.66
461.72
537.48
639.76
554.04
277.23
892.48
3240.42
457.40
679.91
839.65
843.01
905.95
814.41
803.41
537.07
394.03
320.90
602.66
361.23
773.54
293.55
341.82
493.60
810.22
815.14
697.60
314.08
363.92
483.66
545.94
633.83
560.16
551.02
422.80
372.98
482.64
707.46
793.70
842.94
822.60
654.40
436.96
366.39
327.79
420.22
638.53
716.88
603.40
381.82
280.58
278.25
548.87
417.06
258.75
243.53
439.33
607.22
2628.47
1225.02
1791.25
1859.38
1299.51
660.37
338.82
748.67
713.65
381.05
334.92
501.83
1660.93
579.90
629.26
561.69
588.32
388.30
285.46
534.44
771.04
557.83
336.56
520.48
583.63
737.61
523.43
407.68
372.36
775.97
752.86
598.04
442.01
355.51
359.99
365.66
439.98
388.11
431.91
402.49
532.68
539.85
656.07
514.56
411.82
397.92
641.01
524.47
577.10
581.20
2534.58
666.62
606.49
693.21
615.84
466.02
295.37
315.21
375.35
364.77
504.01
483.21
675.51
1199.70
798.17
628.15
449.26
268.91
673.94
645.38
235.73
417.13
458.13
326.21
325.79
300.76
426.75
392.88
540.46
593.10
747.91
499.91
733.52
585.51
501.69
1269.28
1544.25
1335.39
1304.09
448.05
290.88
638.34
818.40
379.25
1210.24
2130.36
1971.49
1021.52
374.27
1294.12
1717.71
1390.58
410.87
264.96
385.88
298.73
555.56
925.91
892.00
773.21
451.62
344.95
697.67
1036.76
708.73
374.52
603.93
518.87
527.26
606.97
578.97
466.96
461.07
378.83
1683.06
414.10
391.58
353.31
332.95
663.23
680.52
559.68
476.02
383.38
364.34
340.22
330.31
545.06
479.09
547.89
517.41
590.71
748.03
971.92
860.38
755.07
505.34
283.24
179.82
209.78
348.51
371.74
366.61
468.59
395.93
395.04
323.60
358.39
565.97
784.60
742.41
564.50
2521.73
481.60
261.00
325.02
412.28
403.70
437.13
406.30
237.51
353.04
420.51
311.88
371.07
868.89
424.41
401.40
404.64
360.98
358.46
348.49
337.71
488.96
607.79
551.31
604.29
660.93
1082.31
1285.98
1416.25
1030.39
501.19
711.07
1290.68
1288.19
622.62
380.86
477.53
2600.59
496.01
464.53
569.98
578.37
522.97
629.81
1013.70
1292.57
1097.76
857.41
603.52
2528.10
448.48
523.47
342.37
325.16
794.32
1183.02
881.79
226.41
729.13
823.72
578.97
305.26
484.97
490.62
507.39
435.87
655.24
868.11
911.87
832.34
635.28
294.91
370.82
532.98
766.29
526.01
371.68
278.61
369.51
458.40
497.69
513.24
448.94
483.18
414.92
409.31
496.96
2432.05
491.08
568.09
522.30
344.15
311.69
346.61
450.92
417.63
452.58
341.50
335.99
280.24
764.45
302.74
362.00
556.13
503.92
344.35
395.56
513.26
643.13
666.90
772.29
793.35
522.58
700.82
569.44
398.36
341.77
318.87
448.07
601.68
620.37
721.83
617.10
271.61
477.24
250.55
633.17
679.94
687.34
612.33
389.27
308.55
399.44
503.18
632.07
518.07
395.80
322.07
2513.04
272.87
389.26
402.95
393.85
378.40
426.27
481.67
463.75
451.60
478.50
590.36
391.29
702.79
235.41
241.65
386.04
338.64
351.88
437.71
451.40
436.86
332.17
437.43
345.84
425.91
546.78
380.52
371.08
316.85
425.23
447.67
480.12
544.26
670.47
590.01
555.26
406.29
371.05
455.83
407.22
236.56
327.55
423.12
544.72
489.35
368.09
545.33
484.92
333.96
467.65
2457.59
479.32
516.41
498.46
469.92
564.20
554.47
560.24
447.48
427.25
403.02
390.94
335.35
800.45
273.37
343.80
410.54
572.29
790.74
513.63
484.03
434.60
883.84
1632.19
2100.73
1745.94
945.57
559.24
1761.70
2126.43
1701.82
1077.99
410.69
298.65
399.14
431.15
470.18
1721.01
868.09
596.20
343.15
289.28
238.35
486.70
406.63
329.57
350.87
370.49
393.70
295.99
548.32
336.14
439.44
628.57
708.84
555.27
529.31
442.50
323.90
342.85
322.12
362.39
380.86
511.83
610.01
592.29
490.15
457.53
588.30
708.98
507.06
550.01
485.37
441.78
505.31
2411.06
616.26
584.52
564.38
534.57
424.19
413.31
389.07
484.16
422.24
493.96
413.67
523.73
943.04
470.79
471.68
552.78
437.99
291.30
383.71
509.75
422.65
409.59
417.89
355.72
461.80
655.76
306.56
561.89
1103.65
1270.35
426.23
566.83
787.53
832.59
464.09
776.45
1244.82
2557.03
363.98
456.79
508.38
529.71
696.51
928.51
1119.19
1296.41
787.70
354.84
922.76
2435.78
645.22
267.41
440.45
579.57
573.81
499.77
501.35
434.81
540.66
511.06
528.13
645.43
864.24
691.28
443.90
392.39
321.32
253.85
285.00
367.32
413.31
653.46
724.90
638.40
485.53
528.06
485.63
546.25
572.93
402.52
211.47
516.28
344.37
265.20
392.72
336.05
347.76
2378.99
326.97
330.79
333.02
567.55
528.45
385.81
337.55
390.47
394.28
352.62
340.13
521.20
889.65
250.83
402.28
472.59
471.29
528.16
554.85
470.07
451.91
514.76
485.98
635.11
776.39
943.85
609.40
468.48
403.04
348.72
389.88
433.19
533.40
460.70
410.23
436.47
515.44
2332.28
468.21
434.75
499.02
428.28
350.98
312.17
326.06
423.50
539.05
486.23
457.50
409.83
807.10
517.20
539.01
663.88
765.46
597.54
445.99
315.05
332.29
351.47
386.73
375.36
424.35
796.88
433.37
528.16
476.75
398.41
630.19
700.66
953.18
857.62
587.25
375.42
338.94
338.38
331.48
313.91
369.26
348.51
447.29
372.31
340.83
277.44
386.83
437.15
452.40
556.53
2363.49
351.51
345.39
333.32
472.86
728.21
739.22
706.94
694.06
600.84
473.27
288.41
375.18
749.84
339.72
477.20
718.69
964.20
804.19
900.01
998.76
901.83
676.01
573.48
415.12
2306.95
677.78
674.88
688.63
341.05
1208.51
1360.81
1377.66
902.23
558.44
657.55
592.07
2587.42
281.38
536.61
438.94
477.11
441.16
382.20
347.76
493.60
475.04
467.51
378.27
383.14
956.89
474.26
480.98
471.55
412.79
396.52
512.00
591.75
477.58
397.93
474.59
512.42
476.57
828.16
599.55
499.72
422.60
379.31
351.06
328.05
379.23
483.33
768.03
759.72
899.24
854.05
861.91
1068.23
1031.37
675.76
460.14
319.26
334.65
317.25
371.41
357.51
186.83
309.60
538.47
259.76
733.21
1374.51
1683.49
1108.70
463.87
366.85
898.19
1155.89
1333.36
1166.11
615.69
371.64
426.32
273.28
389.70
530.21
704.38
967.68
1287.05
1251.68
562.70
382.36
400.53
527.16
543.44
392.28
408.48
478.01
505.40
534.57
573.40
710.56
645.57
467.91
2404.92
566.40
812.92
563.27
346.18
458.15
369.44
484.63
351.32
403.50
512.74
498.67
561.79
1092.65
674.02
663.50
581.69
393.11
451.39
361.63
394.35
378.72
411.77
370.84
372.70
423.02
435.51
465.47
493.56
476.22
432.79
391.55
411.64
387.93
485.33
572.69
408.23
499.95
2368.80
546.62
401.59
339.81
409.18
463.81
481.89
423.56
384.38
365.27
399.20
396.32
497.96
817.08
416.53
545.38
724.30
727.09
800.78
534.73
542.29
353.24
242.33
250.35
285.90
355.40
537.71
466.41
377.07
465.46
569.11
454.83
547.45
366.28
379.87
584.02
579.50
661.18
667.75
508.73
557.66
1130.32
567.46
307.50
468.22
490.59
636.34
658.63
516.46
499.99
365.84
1448.61
602.52
770.32
791.25
710.92
642.86
523.92
402.46
356.07
499.90
456.21
328.72
346.89
710.54
893.15
1779.47
1987.97
1619.57
665.71
590.91
1374.32
1796.21
1614.95
1156.67
307.34
521.26
450.39
620.66
887.74
1059.21
1124.52
736.98
416.16
361.92
804.95
802.60
528.58
377.49
361.65
450.76
548.35
936.43
1692.24
2020.48
1879.86
767.68
583.36
1317.90
1428.20
894.01
330.03
381.11
618.56
880.76
714.47
436.40
310.53
272.78
359.55
551.90
517.20
1756.89
396.02
530.04
328.50
460.22
685.90
1327.97
1772.98
1683.39
669.40
981.40
1448.41
2180.14
1399.31
939.85
426.96
439.44
350.16
463.86
551.27
532.57
589.87
559.42
505.58
1782.49
446.04
490.41
718.31
583.69
648.76
670.75
715.62
745.40
765.12
555.62
484.73
438.41
948.96
625.76
358.36
733.45
668.35
672.74
404.62
353.26
578.14
706.48
575.88
574.23
609.45
594.54
518.12
413.81
461.15
293.78
440.15
361.34
358.71
271.53
393.96
428.16
438.01
2039.37
415.89
504.06
607.75
759.46
1037.60
640.49
428.18
414.00
320.18
353.88
617.70
746.75
1300.49
830.62
539.10
353.80
311.40
387.29
377.33
331.33
396.61
419.51
327.42
415.22
276.66
519.69
431.14
353.60
305.82
461.03
549.08
519.31
425.73
485.27
392.61
530.39
485.22
2115.06
538.10
465.42
511.79
544.33
538.01
643.44
902.22
1082.17
1282.84
820.18
351.26
3150.89
1375.42
1222.96
971.10
456.00
301.86
603.12
482.38
407.16
545.91
524.55
473.80
2063.58
624.40
631.86
633.97
527.03
525.10
531.30
351.31
371.56
752.73
1083.90
1548.47
1986.67
2064.72
913.79
431.52
1197.48
1723.55
1496.39
1012.00
414.31
341.09
225.12
305.50
1700.75
468.36
456.55
374.45
457.39
399.73
483.21
508.45
711.47
803.66
416.06
302.37
201.78
636.73
373.92
333.82
350.42
383.52
467.28
336.37
409.30
505.16
602.97
692.79
914.44
886.11
647.81
662.40
528.61
389.93
335.92
402.59
318.36
357.78
343.37
360.33
355.36
369.28
2127.21
647.31
548.07
666.10
684.31
890.82
1161.68
921.00
664.82
342.65
382.05
716.09
541.96
321.15
344.47
359.55
518.80
578.38
480.02
424.88
232.49
406.28
369.13
579.70
420.95
2003.30
433.62
565.40
505.62
535.22
492.74
549.50
571.94
652.87
549.05
385.53
344.87
350.13
704.76
340.38
308.05
499.83
518.15
569.75
470.23
381.92
410.43
543.49
659.38
442.79
333.38
708.47
398.26
410.87
386.37
320.30
447.36
821.80
971.04
1039.89
668.71
311.64
393.97
1453.81
457.80
409.91
476.35
817.12
1120.19
742.83
297.41
342.87
562.81
940.64
628.09
404.31
658.36
594.61
594.84
525.10
459.01
387.58
442.92
340.35
310.57
339.44
342.84
435.16
1896.61
391.00
496.66
430.28
722.34
1009.03
1412.58
2525.93
2927.31
2257.71
699.41
922.11
2869.16
2694.65
2374.73
1554.04
497.32
433.04
546.35
505.30
481.29
412.27
388.44
467.64
891.19
481.84
465.33
559.68
529.65
584.45
682.92
708.57
863.95
677.43
433.82
431.43
237.41
611.15
251.13
295.18
415.51
704.24
779.17
709.95
509.60
381.60
381.04
409.48
267.95
340.65
446.64
313.38
480.06
543.84
542.32
668.12
684.10
638.20
575.33
434.99
471.58
286.81
1924.21
931.50
1160.59
792.43
426.45
510.55
285.50
376.02
528.80
563.24
390.19
535.61
395.57
451.37
329.70
270.78
483.07
574.79
459.49
688.18
916.31
1308.32
1588.83
1533.48
1043.45
635.09
779.94
1337.78
1272.74
779.03
418.59
731.03
922.34
1375.78
1412.98
527.00
2823.81
1918.51
1899.99
1016.43
318.53
370.28
568.71
555.08
424.88
458.61
299.41
440.38
1351.28
390.99
431.48
497.51
400.90
403.86
549.76
699.22
476.78
549.45
425.20
527.96
512.72
689.08
486.45
617.07
493.85
385.88
404.55
342.44
822.50
299.93
568.22
698.02
596.00
516.69
599.77
656.81
808.09
570.19
401.99
297.35
478.89
300.08
456.07
867.75
883.51
715.70
1851.63
371.67
462.59
221.05
329.85
419.87
341.33
259.81
334.24
303.92
417.64
416.08
571.46
991.83
539.42
477.09
336.21
314.89
291.65
324.27
316.16
372.69
380.81
345.83
448.25
475.49
526.98
587.65
591.20
451.47
389.64
401.81
514.00
663.75
786.75
672.84
463.66
688.35
1837.59
404.14
297.82
362.87
328.96
382.27
401.87
343.60
378.53
425.75
267.26
461.24
339.58
785.05
369.72
506.05
725.84
669.86
517.49
557.35
364.51
298.05
333.80
477.56
484.59
661.82
959.21
662.52
644.17
460.91
461.41
405.72
315.91
365.26
466.08
483.37
397.68
488.33
432.97
452.06
462.68
459.73
565.45
550.85
613.00
628.73
320.94
276.73
337.64
435.48
735.93
2101.54
1007.73
924.83
858.81
703.34
504.81
371.29
279.52
814.70
1428.99
1606.75
896.21
269.78
492.32
736.44
1424.37
1438.12
632.55
400.59
670.80
427.99
363.17
500.12
331.26
349.11
834.94
510.17
639.24
743.03
734.00
449.08
459.90
488.81
430.89
605.41
402.71
308.92
553.22
628.01
374.52
583.13
477.46
303.51
461.38
844.71
495.33
429.39
667.17
661.65
768.65
824.07
1028.01
795.64
527.04
426.10
496.85
838.39
509.50
308.05
324.43
353.89
325.47
564.12
1480.14
938.76
830.93
677.59
360.26
591.29
627.49
424.52
583.58
526.44
602.05
578.25
486.85
874.74
542.50
494.55
378.65
546.65
561.16
594.25
375.16
480.10
480.65
681.90
559.09
463.13
400.39
297.82
307.77
348.77
465.45
390.91
441.56
251.58
311.27
297.72
373.14
634.32
1932.19
894.03
934.43
690.63
432.06
363.31
375.11
426.42
661.69
305.23
456.52
557.86
447.75
991.14
760.77
736.19
657.47
490.04
258.84
397.95
392.77
517.89
738.27
580.99
463.21
440.41
581.76
503.80
441.14
431.61
278.29
287.81
583.96
913.38
618.04
316.22
479.60
690.01
1998.68
1447.53
1883.20
2086.08
1557.25
706.71
325.08
1157.99
1996.03
1438.59
847.96
511.80
395.69
225.71
358.71
480.40
488.86
635.86
471.86
555.88
559.36
541.87
479.41
636.40
1638.35
597.82
697.75
876.73
719.79
611.70
460.36
428.31
346.78
373.82
296.75
848.59
1155.72
1240.50
229.81
452.59
472.36
539.75
621.91
687.18
662.07
669.66
444.51
342.21
254.22
1550.84
273.18
343.96
316.41
427.65
763.81
889.23
706.27
377.13
169.30
431.08
677.55
580.93
959.69
562.87
419.81
314.05
280.32
414.85
214.76
233.94
349.93
536.86
527.69
488.19
644.79
746.00
652.66
517.13
366.42
556.73
507.08
537.56
638.68
823.73
725.29
236.78
486.58
2050.98
672.57
450.21
395.46
389.73
266.40
503.83
550.24
481.41
436.69
474.15
459.65
384.98
818.32
525.08
292.20
485.48
507.22
561.86
568.74
626.35
456.55
326.87
405.89
578.48
743.09
793.44
372.63
366.95
417.90
436.86
421.46
388.48
365.74
527.68
389.24
215.50
370.35
420.98
645.29
679.57
688.32
503.90
369.28
321.72
479.89
524.67
782.02
544.70
383.69
493.35
1386.33
692.56
716.65
463.64
242.35
536.91
748.96
551.64
324.20
598.70
644.89
443.83
377.08
662.66
459.93
988.12
1142.60
979.78
968.29
762.20
331.11
417.33
294.76
427.14
781.99
1708.19
356.27
722.31
1044.13
1009.59
369.54
370.87
429.86
595.18
554.91
517.18
419.41
397.63
392.50
330.26
387.74
348.15
504.84
553.43
628.76
665.93
619.24
614.51
546.13
437.07
1430.83
494.90
358.16
538.41
737.14
635.77
522.56
618.99
569.35
607.85
384.58
396.87
296.18
823.71
253.47
162.69
220.83
312.31
292.96
448.34
535.43
527.67
570.20
641.44
516.10
386.80
516.53
343.76
376.26
336.88
447.75
318.02
400.79
379.92
219.51
287.09
320.11
332.58
455.41
534.16
696.22
716.14
709.99
573.51
300.38
939.92
744.34
438.16
845.66
1010.29
484.09
1928.60
356.96
524.26
666.20
685.54
500.85
228.10
238.21
331.51
445.03
736.55
798.71
860.40
893.55
731.02
458.45
416.52
506.11
347.48
523.83
715.98
577.32
547.78
460.63
771.63
1092.06
1087.94
624.69
237.06
255.47
406.00
757.99
437.88
341.46
633.71
708.60
781.16
599.14
933.76
500.97
480.32
344.03
202.41
260.70
490.95
591.31
549.97
254.07
296.54
473.53
449.73
741.40
648.15
419.19
353.27
363.72
304.74
306.83
366.04
337.50
525.88
453.59
423.82
1310.25
245.59
321.04
345.35
386.02
457.39
505.83
567.60
511.90
690.07
760.58
804.64
909.69
1356.74
351.43
317.55
254.16
448.18
550.92
594.71
533.61
450.41
438.54
252.76
695.54
384.75
334.37
627.76
640.13
824.10
784.37
595.30
254.82
388.07
924.48
1391.04
1232.46
525.37
1161.98
868.30
1101.97
478.68
275.39
251.78
404.55
376.66
325.78
336.48
286.33
232.79
1538.55
455.49
564.84
463.13
544.25
537.35
482.53
479.04
569.39
503.91
506.67
539.28
455.65
621.67
409.89
441.33
566.97
555.73
622.25
717.40
696.55
749.37
707.12
542.11
518.39
438.37
492.77
266.75
298.36
263.28
303.16
298.72
348.25
526.00
691.76
751.60
763.10
436.44
1287.67
324.63
542.41
580.48
340.78
428.75
605.29
504.78
450.43
500.37
621.93
527.28
859.26
1418.43
951.48
733.37
316.92
299.62
483.33
413.15
361.99
356.60
597.67
558.76
644.45
1399.88
541.56
574.12
471.16
374.28
406.20
534.99
477.24
684.10
724.67
651.80
487.36
321.77
800.40
452.68
342.87
245.08
272.97
346.69
417.24
616.90
751.73
767.80
1016.28
893.75
490.39
455.42
376.95
322.56
370.59
580.97
814.04
1114.70
680.98
426.24
670.19
666.57
335.07
1638.74
318.30
354.41
285.50
264.13
328.95
368.29
513.96
474.61
507.87
457.73
435.50
642.52
780.74
734.95
844.27
816.86
624.70
587.55
516.04
380.11
296.60
327.03
553.88
618.95
503.12
542.61
288.91
422.87
358.77
241.46
389.50
295.02
363.24
273.90
371.01
480.22
421.76
1263.31
486.05
625.75
562.06
368.37
388.75
294.47
432.20
344.68
350.10
630.51
798.46
838.06
1365.86
718.04
458.51
371.85
234.42
375.50
348.09
229.94
330.17
336.93
465.88
505.91
591.42
498.78
542.66
435.04
467.58
523.33
359.17
338.34
454.70
525.25
500.42
499.49
287.38
3131.87
558.55
641.58
812.93
852.33
1024.52
863.10
683.25
403.85
395.98
259.50
321.19
371.85
864.50
266.96
304.26
642.68
862.20
844.65
833.20
603.44
332.34
346.91
486.04
738.65
632.88
722.46
375.95
326.90
320.81
336.46
304.76
443.58
457.07
444.98
258.74
268.27
292.75
384.08
601.04
690.27
822.15
903.25
468.73
259.73
343.88
397.02
291.63
379.32
331.16
303.03
1241.50
469.67
555.49
755.73
630.52
535.15
497.51
543.70
449.67
314.14
366.36
343.01
432.31
988.88
660.55
613.87
488.21
747.14
1038.96
1424.22
1270.68
946.46
408.48
430.54
669.56
1340.66
242.11
195.36
345.76
399.69
547.80
834.76
1040.76
1288.86
1023.28
560.62
406.90
1238.75
418.29
678.45
987.63
1013.20
442.13
380.71
570.04
530.28
569.25
671.95
590.64
1551.37
348.27
378.52
369.47
567.35
423.79
325.01
427.51
518.23
672.09
758.75
612.21
642.92
649.01
381.00
418.09
433.48
436.40
438.46
308.61
354.49
323.14
386.91
394.55
526.41
574.01
698.52
660.52
816.01
645.72
363.66
452.44
243.14
353.04
428.64
436.64
393.76
424.40
3023.68
494.81
456.54
373.85
503.38
509.47
529.67
369.49
365.33
325.75
277.73
404.09
578.86
1123.55
538.03
393.72
420.62
369.43
367.85
314.49
430.89
500.04
524.64
462.16
290.39
371.08
376.19
299.40
422.74
409.61
456.44
454.10
442.45
293.94
284.26
463.67
560.61
516.75
3032.98
537.09
560.56
651.75
828.35
767.09
627.41
708.31
571.70
349.58
439.95
765.26
766.28
1063.27
310.52
327.06
538.47
687.14
789.97
894.71
955.01
934.24
574.81
337.42
833.89
566.80
321.55
483.14
527.56
710.48
909.28
1032.49
895.78
715.88
590.09
496.58
313.17
469.93
2098.50
434.56
361.44
480.03
542.65
390.54
382.20
433.14
421.33
352.87
582.12
856.58
1276.01
1556.23
963.83
453.86
384.15
749.89
424.10
293.39
447.84
571.19
795.25
905.11
763.35
1130.31
397.64
408.62
562.45
379.71
491.01
1183.77
723.34
321.57
583.13
686.01
568.53
1188.40
408.34
469.95
442.16
400.66
472.66
515.76
617.27
370.44
409.04
229.45
364.78
313.27
820.12
277.02
366.55
371.79
392.60
638.36
572.43
705.87
605.10
479.89
306.41
366.39
507.92
735.32
570.32
745.81
889.27
921.17
860.69
704.88
492.33
417.03
368.20
283.73
474.36
258.27
640.11
518.80
507.99
495.31
419.76
373.71
424.19
770.73
681.06
452.41
526.11
426.65
3265.19
744.28
625.85
743.20
619.61
426.79
301.71
385.14
418.61
576.83
750.57
1037.74
940.33
1229.10
428.65
286.18
462.51
608.98
318.92
653.27
729.40
641.44
577.34
646.53
490.72
370.48
344.03
417.94
424.70
462.23
379.52
460.73
598.42
769.91
849.38
776.98
869.66
772.33
2938.96
494.25
355.39
619.55
758.41
794.78
420.13
396.62
529.14
585.36
775.29
728.32
485.75
1028.70
532.86
455.89
446.60
417.16
367.60
398.11
565.25
731.28
580.31
632.29
655.72
422.87
552.70
457.01
278.70
315.70
404.84
480.40
427.09
414.90
388.73
375.52
590.77
599.09
2918.54
473.34
608.31
512.67
556.29
463.85
478.84
491.20
399.24
455.78
483.43
455.38
440.07
1052.81
515.32
481.93
307.63
414.82
463.23
339.44
418.82
558.09
676.74
568.82
362.40
308.47
425.12
406.05
525.09
495.42
561.98
341.91
277.90
187.58
342.39
283.87
358.70
415.68
2971.27
751.32
782.31
636.49
517.66
581.52
563.59
569.51
586.71
690.34
648.95
555.23
471.33
719.71
289.03
459.68
524.58
559.19
773.83
1021.45
1049.54
752.02
648.19
385.16
401.16
1255.96
179.47
359.49
341.51
254.39
323.51
349.79
250.42
363.72
360.00
382.19
484.93
337.38
754.78
333.44
328.52
268.74
430.76
585.83
588.94
530.56
444.70
785.54
976.51
2032.19
2703.92
2756.24
1467.98
762.88
2626.27
3208.14
2810.70
1614.99
395.36
436.39
609.60
783.11
1211.72
785.80
848.14
703.05
539.18
325.93
295.35
294.78
404.70
377.17
598.69
600.67
2823.93
596.88
817.99
855.88
1000.57
1170.59
689.76
395.74
832.59
604.73
342.91
423.79
486.33
688.47
739.27
735.09
634.42
221.37
500.51
251.94
412.02
371.64
519.15
545.93
571.72
1255.33
459.42
498.98
608.24
696.32
912.55
906.69
962.75
790.85
716.27
727.04
627.04
329.97
683.91
312.89
463.24
745.56
615.64
494.84
446.15
411.82
500.03
398.22
467.80
423.86
301.56
340.92
299.68
421.09
466.40
679.00
701.76
676.58
807.35
715.18
644.29
386.10
671.61
1247.39
386.46
287.24
316.04
245.34
428.69
673.06
648.15
634.64
664.71
410.43
335.03
362.60
717.02
370.82
527.78
579.16
463.00
285.80
275.73
371.32
523.71
729.57
702.43
559.22
533.07
902.75
725.62
587.28
647.48
1171.61
1402.08
1368.08
752.81
412.63
1009.22
1142.61
549.95
434.76
386.03
443.64
369.36
664.49
909.42
329.41
509.31
584.30
880.23
918.01
943.69
2161.26
372.22
307.01
563.42
749.01
794.45
699.88
907.03
732.24
416.92
275.77
374.23
285.82
620.26
954.22
748.40
337.96
479.12
377.50
276.10
470.85
1158.70
845.46
548.77
366.99
702.13
303.80
423.16
633.53
492.21
519.04
598.64
663.16
901.75
939.07
645.38
334.78
371.51
579.09
372.83
478.20
296.69
303.35
461.50
562.44
507.27
477.03
404.31
418.94
297.70
2804.69
613.03
431.93
581.44
665.83
630.73
409.71
533.39
590.95
535.72
469.25
565.10
413.19
703.19
453.13
469.38
373.01
417.98
495.96
429.01
273.25
281.23
525.32
514.65
663.32
951.57
1536.34
1339.19
813.06
810.62
909.53
1338.68
1174.58
493.56
915.88
1538.48
1514.01
2528.09
341.30
854.45
1411.73
2403.59
2108.37
1356.94
546.83
697.38
1952.49
3065.43
3323.21
2005.02
549.97
652.97
1096.76
781.26
665.56
886.10
1070.48
930.86
377.53
939.90
3204.05
315.40
349.42
432.54
316.59
386.85
455.97
672.43
639.82
747.79
850.80
686.24
701.36
1130.88
421.17
449.49
298.69
434.11
604.91
405.11
357.19
610.81
538.81
498.48
377.45
354.44
748.88
742.54
371.00
420.94
863.02
1365.72
1497.82
1435.91
845.76
675.78
758.89
753.05
842.05
327.96
299.44
582.72
734.76
720.43
394.22
380.09
316.22
308.50
321.73
327.56
494.55
568.87
601.74
603.99
629.20
582.72
775.22
857.55
765.67
444.53
476.72
552.59
383.43
1621.08
315.72
377.20
289.90
504.64
694.54
406.50
312.82
350.32
864.51
1386.40
1772.91
1396.50
531.41
714.76
402.15
631.02
855.22
491.19
308.94
391.13
632.99
1172.89
2210.23
1580.85
463.72
1797.42
3407.56
2873.11
645.99
1248.96
2154.22
2315.41
2522.49
1879.94
791.63
685.28
1285.28
1889.94
1387.43
560.50
238.81
354.73
242.30
675.16
644.26
419.29
342.43
1244.23
1095.51
1021.79
1240.92
1492.48
1119.88
1319.54
993.22
372.42
572.24
1129.11
1691.35
683.51
249.54
376.72
426.22
373.70
567.30
1123.80
1068.12
598.58
574.49
484.98
786.20
376.05
410.31
234.93
383.91
465.44
737.51
1479.98
1583.02
2074.34
2465.31
3404.01
3063.66
1452.76
645.30
2898.31
3136.92
1711.37
322.33
772.62
637.42
555.01
581.43
634.98
454.68
363.91
562.29
861.82
1055.33
622.35
287.16
1219.13
1557.64
1757.20
1000.26
546.28
1029.21
837.89
379.26
252.82
586.78
701.34
540.83
347.47
320.82
392.97
211.58
317.51
878.41
514.08
457.88
648.01
638.61
544.71
757.87
1129.00
1254.88
705.83
437.50
345.81
2645.20
1008.97
1122.79
913.98
310.01
1219.22
1153.76
923.25
384.48
1026.79
1719.89
1905.64
1106.04
623.55
366.01
975.92
1306.31
898.69
323.97
387.87
407.15
370.56
309.80
317.83
664.35
392.38
412.55
541.99
325.27
962.62
670.79
336.06
653.39
684.56
468.16
309.28
374.89
283.10
306.06
432.50
390.46
398.71
616.88
1000.25
1018.65
847.35
457.54
357.29
409.32
1618.92
584.36
678.37
566.82
591.30
682.26
696.04
384.53
348.63
580.53
844.47
524.46
272.98
796.36
1201.42
2595.49
3456.36
1698.51
453.33
669.57
779.74
362.74
963.14
862.63
491.06
583.99
1354.94
1832.53
1583.24
845.20
576.27
1161.84
479.97
374.71
293.80
430.38
377.76
784.22
799.36
766.91
906.68
1117.71
1088.79
383.90
522.78
698.51
718.29
495.83
278.54
1626.79
405.71
437.87
590.89
906.66
504.60
866.04
1394.45
341.85
761.77
526.19
298.19
301.52
473.84
693.56
642.23
850.48
993.17
1388.76
1756.70
986.22
247.22
618.35
289.52
450.32
882.78
1119.38
868.16
750.58
444.85
395.22
438.35
1128.16
2305.33
1867.30
1316.58
317.12
1045.95
1386.38
1435.35
1589.98
1344.70
765.80
549.25
355.09
245.67
751.35
1407.06
3928.95
1297.37
768.89
749.77
636.43
345.85
500.56
323.23
292.66
401.73
589.15
708.34
989.77
1684.45
1957.81
1269.19
450.49
684.48
322.00
479.94
344.82
530.83
370.55
563.23
366.43
501.45
293.55
423.55
437.59
567.83
354.70
554.15
1356.24
787.00
427.89
674.14
800.03
1742.61
693.22
920.51
804.85
498.59
382.78
269.08
482.85
694.14
728.37
558.59
1335.20
1001.75
450.63
571.10
571.60
487.44
1043.45
1269.06
620.63
491.80
365.59
307.37
411.23
637.38
556.78
320.95
471.65
954.74
1608.65
1548.86
966.58
532.91
510.31
740.10
717.26
680.03
842.03
509.90
434.20
397.85
770.37
1165.48
987.77
472.58
356.53
296.16
376.14
454.75
2726.53
520.92
428.48
358.08
336.63
495.49
659.02
525.33
447.93
334.85
340.06
559.07
943.16
1433.75
1258.63
862.96
649.36
515.45
405.95
554.33
1109.77
2043.78
2785.55
3849.07
3927.46
2248.04
383.61
1583.43
3881.06
3968.35
3924.76
3351.02
1499.84
391.58
384.30
347.13
903.86
715.75
336.40
378.30
507.64
359.87
494.11
1060.67
1269.80
813.72
575.46
656.78
2782.04
419.09
1085.00
1334.75
540.19
534.36
1156.89
693.44
266.20
666.40
1602.90
1917.01
1742.38
1024.06
376.55
689.32
421.43
873.97
1366.34
973.66
377.24
621.15
779.22
422.71
1075.67
1018.76
637.31
326.80
285.84
391.20
805.47
898.58
682.62
530.89
585.70
301.83
1749.56
373.76
376.98
416.06
333.33
317.05
723.06
1446.93
884.53
501.36
480.72
704.29
2629.36
1452.31
884.42
424.99
1349.31
1165.57
436.87
948.28
962.11
710.38
710.33
754.92
1112.18
1085.51
941.35
664.20
299.63
475.78
553.01
527.41
392.42
528.99
302.05
521.63
3507.76
823.64
671.80
546.28
275.63
343.49
605.36
638.62
470.92
544.76
684.65
621.70
557.93
1278.99
411.63
325.72
400.84
723.15
894.34
459.02
284.02
645.32
406.38
348.02
609.49
537.15
522.21
321.68
783.29
671.89
327.35
291.50
468.70
480.89
277.11
494.86
805.97
698.48
2538.32
776.82
705.53
857.46
1636.41
2265.80
1389.06
1222.68
1303.17
1121.14
583.74
1192.94
2505.26
2851.14
2184.56
899.87
361.84
586.10
778.40
426.10
769.09
1051.51
762.59
630.33
666.72
472.03
598.08
427.08
565.96
510.48
366.60
331.63
341.25
351.84
312.81
1043.74
2862.88
1350.60
436.40
341.81
517.47
1403.40
1625.75
1506.51
1616.80
1284.74
633.41
1534.09
2450.00
1804.41
1925.95
1425.39
884.23
251.90
699.64
1040.64
1384.01
979.09
440.78
803.37
614.96
944.18
750.78
438.48
584.14
878.45
1162.59
1776.34
1885.91
1786.34
1341.98
1480.34
861.89
988.40
431.39
1117.42
406.12
648.56
1387.55
1363.04
1376.37
1197.71
717.73
437.77
310.57
670.21
1284.08
1484.72
1583.52
1069.82
473.40
501.84
521.43
662.76
3559.50
421.82
329.07
310.29
306.40
392.54
576.53
926.48
1077.21
506.67
648.69
1143.30
646.47
396.10
319.28
479.22
731.42
777.38
831.64
484.77
302.22
517.84
631.52
904.85
955.94
1658.14
844.84
1317.57
1385.08
1436.25
1601.77
1337.40
873.96
790.70
880.60
373.10
788.80
1150.97
827.57
656.02
1638.97
1433.25
614.02
463.10
1326.25
1622.06
1290.32
922.07
3186.04
527.82
304.67
463.33
301.22
330.36
552.58
1028.01
1350.67
1338.84
729.86
327.94
2171.17
317.29
575.34
397.77
308.28
555.95
1238.97
1230.66
667.04
603.41
508.59
703.30
2530.69
1414.74
1746.49
1015.21
631.59
380.73
369.61
809.14
985.24
953.05
1081.44
684.16
987.24
460.97
399.36
321.77
426.92
443.20
555.58
475.62
415.47
475.10
365.46
478.67
595.07
788.05
517.66
607.43
615.49
672.07
403.90
394.10
327.42
300.96
332.75
416.59
529.74
2470.27
363.85
341.82
433.30
412.18
483.72
401.65
659.15
586.91
611.45
461.37
335.28
612.62
791.98
737.76
1262.20
889.29
359.58
539.70
807.55
1246.91
1919.90
1707.98
1098.77
589.98
808.30
365.11
896.17
1612.91
1521.04
1200.59
452.35
1324.40
2179.57
2321.17
2308.65
1757.81
969.07
573.08
253.53
647.92
1211.82
1957.76
1759.48
1996.85
1412.28
608.13
591.24
952.27
302.66
571.65
1349.56
1798.85
1268.89
550.45
1213.29
2596.96
1983.43
645.47
2714.08
1204.51
1121.48
1782.20
2399.74
1866.46
736.14
331.92
610.40
910.27
552.75
2047.54
2248.71
607.84
1363.54
2215.81
2028.04
1020.06
616.12
1065.64
890.57
1319.43
1033.54
1250.47
341.48
668.65
391.88
263.20
308.00
297.90
291.06
550.45
474.51
407.13
581.86
2388.33
1071.03
816.08
571.82
365.95
438.08
662.00
853.07
427.22
1039.27
1017.64
383.23
1084.08
1492.70
1845.58
2047.09
1715.30
1167.58
829.32
1160.85
1767.94
1565.43
1315.06
542.98
1151.20
2123.00
2282.14
1711.21
563.11
439.96
336.42
501.43
640.38
762.61
732.32
1965.75
318.56
620.48
663.33
852.38
1567.48
2445.95
1661.22
662.30
797.08
1675.21
2085.63
2067.38
325.98
995.06
2186.57
2049.92
1010.07
320.71
1207.74
1571.75
1193.99
579.81
1277.65
490.06
726.99
697.68
615.50
405.65
285.68
308.25
697.40
807.92
564.05
493.19
421.38
517.13
888.29
1030.42
935.29
356.64
329.12
525.74
1174.23
1499.31
1682.84
1390.62
299.76
1117.36
1235.79
381.23
776.96
1195.62
1316.43
1499.57
1706.43
901.02
626.98
1075.65
2151.33
1892.69
550.20
1176.64
1719.82
1991.73
835.21
714.03
1200.16
474.48
550.26
2454.98
1563.15
1273.89
445.74
433.00
445.43
774.43
498.11
387.36
1491.46
2104.56
855.79
1403.00
422.20
351.53
508.32
485.45
578.61
648.94
965.08
1099.89
1357.73
1071.46
969.47
1409.74
670.71
341.25
365.06
343.71
493.90
289.25
463.46
557.37
681.63
632.05
524.96
2503.36
927.92
393.19
521.68
822.50
1292.45
1164.45
497.38
566.13
1212.21
681.34
427.64
1652.77
1018.51
635.90
885.29
729.26
918.18
2042.06
2252.29
1062.37
579.73
540.91
682.35
1413.37
318.79
369.87
298.80
301.64
338.36
483.38
366.96
809.90
1070.85
442.96
624.95
2353.68
415.52
733.55
1487.55
1351.75
470.91
843.32
795.87
876.90
946.10
374.96
575.76
334.70
1253.27
2376.56
3017.61
1508.90
960.34
1750.52
886.07
427.73
708.97
1438.75
2749.54
1585.16
389.86
370.49
370.39
450.61
1091.73
1283.94
1178.49
481.53
544.36
674.69
451.50
1062.27
458.79
461.97
832.05
1059.83
787.91
462.18
866.53
758.57
355.03
856.32
1019.44
1710.84
541.87
736.73
897.30
574.53
309.95
276.29
401.29
920.39
1611.30
401.92
644.05
2314.47
1163.49
549.66
520.70
704.92
538.90
460.73
419.37
638.96
562.78
352.79
1087.20
1585.63
1535.66
911.28
493.60
835.82
517.08
399.83
765.41
989.27
1871.39
759.97
345.11
2234.53
673.01
605.20
471.79
388.79
631.75
560.17
255.76
334.21
670.18
758.99
666.07
1539.71
1308.84
474.06
525.81
389.16
580.93
413.04
420.73
432.55
473.52
760.87
1005.61
618.12
1769.79
429.15
504.40
740.36
530.49
356.72
286.16
280.37
511.70
675.77
321.24
924.69
1540.57
1373.53
636.32
1150.77
1594.69
473.99
594.73
645.50
617.45
417.44
543.83
1336.77
1877.01
2056.82
1449.90
886.97
494.53
2640.89
2256.60
406.96
650.42
1098.51
1083.05
578.82
1378.54
677.55
387.05
698.24
732.74
1579.61
3050.36
2770.27
2062.28
527.68
1692.98
2336.19
2779.03
1992.67
434.51
1045.24
1268.09
786.65
492.90
296.57
602.50
458.94
381.55
476.49
559.73
571.12
408.44
1363.66
1480.96
382.74
468.24
477.67
770.97
944.91
923.62
332.71
917.19
1267.13
721.94
438.58
630.24
871.55
1380.57
2461.07
2870.50
1884.88
775.61
699.00
2290.73
3982.86
3027.79
1313.24
583.13
1804.89
1808.01
475.91
1070.98
1067.78
538.03
1318.27
589.60
431.16
445.93
451.83
330.14
474.91
345.11
358.47
574.67
591.27
638.90
2376.74
939.48
333.58
886.78
464.18
523.48
707.67
831.82
408.94
438.59
390.93
339.11
250.15
1018.80
1307.53
1365.21
1308.22
1343.55
702.38
453.54
388.88
348.24
305.69
282.17
353.02
761.25
537.13
988.19
909.65
417.61
355.10
437.67
945.32
409.68
350.14
587.94
640.41
1453.22
502.44
579.27
452.63
408.47
674.93
1210.50
822.09
543.70
423.24
797.79
1277.84
782.44
841.56
487.79
1241.97
1286.50
751.71
392.15
451.06
531.05
701.14
416.04
447.55
794.81
1083.23
542.88
327.54
590.51
1240.94
1822.23
1116.21
676.61
376.99
936.30
1147.19
813.58
396.61
768.85
1832.32
2111.79
1069.37
810.75
1220.26
831.11
440.11
600.12
327.41
777.90
1256.16
2112.02
1876.61
803.28
644.11
906.26
764.21
547.59
374.83
709.86
1090.75
1422.02
1542.41
1059.27
974.99
602.13
1291.90
1823.87
2070.85
2517.36
1726.61
511.52
453.03
901.47
497.86
491.60
641.69
714.90
627.59
580.05
824.62
929.70
902.92
1084.61
676.45
2044.03
710.87
371.05
678.64
778.65
644.09
1291.24
1563.03
841.24
956.94
1034.53
1393.84
1817.74
749.48
709.53
994.97
1509.84
1327.69
990.34
509.64
354.25
424.85
600.82
377.18
1292.80
882.63
440.42
859.08
979.33
808.92
912.71
557.50
515.20
1041.76
1218.90
1243.27
1204.28
488.33
569.72
831.63
502.82
1185.93
1455.03
582.51
582.55
1126.66
770.19
759.75
1293.00
1644.94
1029.22
646.71
756.91
665.03
757.62
408.76
359.89
828.26
561.63
2015.67
3120.65
1922.97
984.57
408.05
358.78
552.19
712.67
450.34
1004.98
2008.88
1536.59
660.87
429.04
306.09
428.78
307.32
1245.00
2752.66
2985.91
2553.67
913.62
521.60
497.66
2009.03
763.79
1451.63
2354.17
2761.84
2297.13
787.99
575.61
1301.21
2960.42
3809.07
2517.50
1791.57
1061.97
303.38
473.95
436.69
413.10
334.31
493.89
358.62
320.10
470.40
388.23
992.72
881.74
1411.65
1287.35
713.47
702.75
1271.85
1835.27
834.64
595.94
578.96
688.32
867.63
475.86
216.91
390.99
367.48
455.25
415.66
342.18
374.56
413.67
610.55
475.58
2110.81
580.85
427.19
543.29
565.55
390.64
336.71
416.46
430.44
623.07
781.61
379.01
383.07
1013.95
314.13
485.79
332.12
324.48
330.60
329.39
819.09
1169.98
864.68
804.04
774.97
366.86
588.03
791.05
718.02
553.11
467.26
774.75
859.90
721.72
945.76
2110.13
1412.41
395.99
1214.03
1388.16
1385.29
641.01
473.56
601.91
2033.33
1510.79
376.80
267.65
378.79
688.32
1572.81
2047.64
2069.36
1445.07
513.42
1944.27
3000.84
2755.25
2034.44
1129.78
570.10
1719.91
1980.87
1367.81
415.35
887.92
603.96
743.76
1154.82
1126.01
708.65
741.12
2236.76
588.62
314.50
417.53
748.68
511.05
417.04
434.62
543.86
810.64
359.85
919.74
761.20
824.81
226.03
491.33
586.82
989.87
1308.49
1335.38
771.64
624.16
760.78
633.59
525.16
1601.36
702.86
564.36
723.90
399.41
1226.83
1258.15
343.33
739.92
833.98
1115.27
1802.71
2824.15
2586.80
1347.84
351.34
1190.16
2575.75
3282.99
3898.42
3945.32
1720.87
413.40
2208.21
817.84
639.46
632.90
503.66
1301.70
2400.02
2412.18
1169.56
451.18
490.85
608.85
1212.18
1289.97
1755.98
1366.09
722.72
567.89
382.88
1119.73
567.00
785.85
1503.73
1250.47
818.04
357.32
875.52
829.24
493.58
499.97
399.94
734.21
929.69
890.69
790.81
666.41
412.95
457.08
942.26
660.41
170.83
828.51
918.52
523.17
534.11
392.81
452.05
1771.14
1894.71
441.99
908.64
1112.39
867.39
466.58
1338.48
1999.24
888.05
413.47
508.47
887.03
1156.24
959.89
1733.00
2068.88
1970.32
682.60
376.52
359.69
355.13
449.51
748.29
305.90
510.13
597.13
404.55
369.30
355.15
360.33
464.63
329.06
438.53
551.28
701.91
903.20
2122.95
371.96
269.73
240.77
421.64
358.82
317.99
514.88
702.93
858.14
1378.72
1262.79
947.29
821.81
493.71
442.43
277.85
366.74
784.17
1074.41
1074.84
564.20
584.36
564.75
602.45
734.94
259.92
534.77
335.12
497.16
843.68
700.43
656.09
1092.32
1408.43
1381.75
1880.18
3377.78
1568.23
452.54
465.02
891.90
1169.47
1423.67
1550.08
1310.25
550.68
348.59
2267.96
323.66
864.95
1490.38
1596.70
1650.57
1340.26
377.85
1747.75
1723.19
1300.14
1212.20
845.27
381.12
770.77
927.84
605.29
567.63
1231.21
2382.09
2911.26
2426.60
1583.86
3099.51
655.86
1328.63
2057.22
1375.70
365.69
1847.55
1998.56
1366.10
607.50
702.95
2242.31
1410.97
1124.37
399.94
382.74
375.38
376.03
499.73
1138.40
1880.05
1614.96
976.99
1400.33
396.56
710.10
855.91
668.88
487.72
1237.83
2134.09
1790.43
720.80
258.72
807.78
1762.22
1525.98
1151.66
680.72
608.61
906.51
1127.94
1384.52
1365.64
1047.82
963.14
3047.21
547.21
408.99
384.40
637.99
1134.35
1406.78
1326.83
1800.30
1856.68
1038.68
459.31
722.00
395.16
1040.78
1369.79
522.69
1494.42
1804.73
2042.15
1821.26
1661.49
976.13
1043.16
656.74
404.20
319.26
426.60
587.44
463.72
516.92
570.14
735.93
643.57
399.37
1701.91
267.65
233.14
503.39
725.07
510.85
285.12
443.22
331.43
598.68
666.01
727.68
623.71
1014.29
328.38
1031.55
944.55
352.03
908.60
1057.58
766.66
758.42
538.46
330.58
243.69
831.55
610.28
501.52
731.66
773.20
672.88
846.84
1013.24
760.63
274.46
984.02
620.17
627.69
904.08
425.50
483.24
812.00
851.01
532.60
552.49
387.18
378.84
854.36
1235.34
1109.32
1809.89
363.95
542.97
508.98
697.17
853.29
901.83
677.93
390.83
489.42
827.54
1182.41
2221.13
1156.10
981.74
1858.90
2847.61
3093.95
2385.61
1219.16
387.67
1503.27
2446.22
2250.12
968.05
758.20
704.36
278.76
571.17
351.49
749.36
946.43
267.20
1100.43
2347.16
2647.82
1483.01
436.14
763.50
1412.33
1885.86
1048.50
671.59
875.11
401.25
381.39
878.14
1281.07
431.40
1243.48
1256.91
1306.74
1203.81
821.07
591.72
292.15
351.20
398.34
812.86
1208.98
1094.15
1557.10
1692.11
1188.18
425.57
1270.95
879.91
879.61
2128.63
2292.81
1736.69
478.53
1109.13
1388.45
773.52
425.50
746.21
422.10
391.38
852.54
560.99
576.33
785.74
384.03
335.86
521.48
1130.72
1392.34
1388.52
996.33
456.24
585.22
729.16
1220.64
1389.30
395.65
688.72
1323.26
2547.42
1590.68
430.43
411.64
301.45
310.86
325.03
637.61
316.14
308.65
557.30
587.90
541.74
268.56
383.89
555.29
728.27
669.11
591.25
510.75
486.94
699.43
524.25
624.88
794.69
998.71
824.36
593.68
215.71
577.48
891.33
1657.00
1829.88
2023.10
940.74
650.67
553.66
509.50
340.25
286.45
395.08
532.81
350.17
667.70
973.06
2437.63
1695.50
1358.45
805.69
328.29
497.32
674.28
456.00
281.93
438.99
417.96
386.95
1415.16
368.71
438.63
480.74
371.32
298.15
367.30
358.70
446.36
522.58
436.74
339.36
429.64
637.82
509.59
493.71
454.45
552.09
646.99
599.38
290.91
407.11
545.47
675.30
688.84
568.17
537.27
324.58
213.98
236.50
326.13
317.78
432.80
558.26
664.25
543.69
608.47
456.79
1435.71
444.99
552.43
632.11
715.66
647.09
402.72
310.32
258.77
253.40
436.62
846.02
834.96
1351.95
730.34
701.14
257.10
206.99
342.59
455.40
477.46
306.01
285.13
306.15
141.33
372.55
583.10
765.69
549.70
387.52
399.31
319.73
352.48
301.98
343.22
334.95
492.86
444.78
1319.29
487.00
465.72
457.51
537.46
806.67
485.72
304.76
432.84
591.40
990.63
1094.54
1231.00
1247.52
835.49
298.45
251.23
271.33
361.05
615.34
606.22
518.67
327.21
209.52
481.37
762.42
458.67
770.94
892.44
819.65
908.14
1334.02
1430.07
1021.67
327.72
755.67
1315.81
1399.34
319.29
654.88
826.39
730.05
526.76
194.25
589.53
367.79
499.65
645.19
570.49
2147.15
382.16
375.42
606.21
733.38
546.22
581.14
1091.94
1663.31
1311.11
858.95
360.45
2161.10
849.56
679.36
245.70
723.16
1168.83
798.47
682.52
682.02
657.63
692.42
794.00
844.92
1030.85
897.28
658.91
338.51
241.26
320.20
771.28
982.21
1018.83
898.69
608.59
252.68
556.87
263.99
394.68
424.88
465.33
528.29
525.20
391.95
345.95
366.94
463.84
477.76
832.94
1301.82
1330.16
905.42
655.89
276.45
268.16
212.29
315.88
460.08
385.81
581.93
800.13
1209.67
934.36
525.72
231.92
258.83
402.69
766.03
1274.28
1536.32
1545.32
852.32
632.15
1660.34
1345.65
1078.00
560.15
209.80
445.75
729.17
758.45
528.16
281.79
327.55
315.76
1522.23
561.84
382.18
572.85
683.10
640.51
750.19
771.37
961.35
818.37
524.72
370.43
327.76
623.25
439.35
366.90
283.77
247.29
324.79
363.92
431.78
670.43
637.62
769.77
858.58
1798.49
840.64
760.99
670.73
543.75
325.13
340.60
567.35
852.35
1014.28
724.57
670.74
571.27
1031.21
337.36
278.59
462.79
460.19
374.72
253.49
203.39
310.51
265.86
278.22
313.38
266.03
415.74
387.10
385.10
398.75
776.34
979.66
812.44
724.62
630.58
700.97
622.82
454.48
1180.69
480.57
201.91
457.31
506.19
321.86
301.84
431.76
423.48
635.97
991.92
1267.68
1433.57
1266.10
1208.56
1332.83
943.59
611.13
598.97
362.42
548.98
413.12
455.59
401.85
434.94
439.06
418.94
349.96
239.00
332.97
367.57
252.77
341.34
440.61
276.38
348.87
326.25
2040.11
751.51
782.25
807.72
530.30
575.48
995.89
583.54
343.38
592.88
632.50
584.23
531.60
915.79
692.14
813.00
1136.64
1313.41
1152.09
944.93
597.38
407.59
303.75
652.51
738.88
782.60
391.48
669.95
1066.89
1527.44
1321.52
689.12
751.87
1751.40
345.05
1146.56
2578.78
2980.04
2089.13
489.32
696.86
1011.54
551.31
275.58
824.63
891.48
693.64
766.46
712.53
1212.69
627.61
586.77
434.38
299.06
329.05
314.08
455.48
614.45
315.21
308.28
358.53
316.13
444.45
461.64
330.77
593.20
547.88
344.32
271.86
253.51
345.80
351.24
474.73
636.65
1220.40
711.89
540.19
457.45
512.86
440.91
311.15
305.16
364.35
574.13
620.23
537.97
536.10
1110.22
642.25
626.62
573.38
402.76
308.28
297.31
327.68
361.94
285.83
383.92
371.68
447.67
540.31
486.90
447.51
502.91
559.13
425.85
328.30
328.47
540.66
584.94
380.08
517.68
1354.83
975.65
1278.71
1653.03
1516.57
969.84
636.69
621.26
622.79
916.45
1192.83
1071.88
674.04
403.08
608.32
420.16
615.00
970.70
1440.14
1467.07
594.33
489.05
403.97
201.96
503.65
227.76
357.82
378.20
673.83
543.45
345.11
538.94
719.60
768.75
861.84
843.41
570.61
500.56
583.38
536.03
297.23
575.62
459.64
291.45
634.41
582.68
366.58
831.99
865.33
2935.88
525.72
629.63
637.32
748.48
754.37
751.66
813.06
738.87
668.68
705.93
605.00
586.08
1171.10
755.12
690.96
776.20
605.36
722.25
607.99
588.42
304.33
1289.50
1455.76
775.25
2337.07
831.86
694.97
623.01
355.15
432.92
418.67
386.29
691.22
927.80
620.01
258.37
335.69
686.80
456.88
712.06
730.38
891.33
396.43
237.70
344.45
270.69
333.30
287.16
591.13
677.62
724.36
415.46
463.45
345.06
311.63
250.51
288.54
321.81
276.48
323.76
545.01
659.03
1318.48
490.03
445.54
430.41
637.39
858.14
961.88
974.13
936.79
762.07
776.32
842.05
719.16
1073.27
511.34
380.70
384.25
778.38
752.94
478.24
326.02
293.52
627.56
668.03
280.26
513.92
961.15
782.24
686.86
726.02
653.97
328.54
273.10
275.95
301.56
363.29
509.53
512.40
1291.91
438.55
312.78
335.04
403.98
835.72
1107.55
863.50
532.76
403.89
555.51
616.68
534.19
796.46
490.67
575.34
601.05
421.86
297.75
396.37
441.39
314.11
336.98
340.80
267.35
292.50
450.75
370.81
189.97
329.32
431.89
432.61
474.19
538.86
388.29
289.07
285.33
352.27
1276.81
706.95
689.65
758.83
557.33
457.37
393.22
618.95
503.71
258.99
276.97
331.54
358.74
948.04
449.30
502.83
415.05
427.93
359.88
327.99
648.45
900.36
851.90
560.81
320.84
298.30
602.82
414.17
377.96
455.50
447.05
303.44
158.39
493.20
391.12
609.29
785.14
681.53
785.01
1036.22
853.77
858.67
485.93
370.02
336.31
891.26
941.63
343.48
492.24
778.62
1047.09
1792.35
714.05
565.74
350.31
375.27
428.81
457.85
319.87
380.90
601.45
584.19
625.49
557.68
333.39
348.26
645.03
889.39
956.75
734.45
452.66
257.07
322.40
471.85
377.84
310.56
1601.55
662.10
638.19
767.59
917.89
1001.65
745.71
581.94
706.79
1049.17
1237.36
1275.21
1078.84
697.08
354.35
982.02
1285.24
964.09
383.41
294.03
403.35
337.23
472.52
645.81
1525.10
407.82
437.10
374.20
356.44
342.48
394.68
861.95
1521.46
1471.08
1112.43
592.19
2586.12
869.39
1476.80
1462.14
648.67
249.85
321.73
285.68
288.33
298.48
360.76
313.96
1311.96
389.88
304.27
384.74
369.34
662.62
697.92
719.17
617.11
556.74
638.39
821.56
800.18
1126.23
364.98
1312.37
817.90
403.09
1290.21
1229.76
845.47
1073.78
1286.83
1269.15
866.20
502.19
418.35
267.87
325.81
312.86
354.53
679.78
472.57
295.14
313.70
338.56
306.47
1687.73
610.39
487.68
383.33
308.60
258.93
342.02
355.75
298.99
322.27
366.29
555.69
411.46
514.48
414.70
448.14
904.05
1065.95
1336.78
1400.35
1166.73
414.83
634.99
824.63
1028.00
1118.01
880.37
632.24
283.48
399.50
377.86
562.61
877.94
760.33
788.17
628.96
513.84
2797.11
525.13
551.49
622.33
826.53
1006.24
616.46
398.21
309.49
560.38
276.68
574.24
1221.32
1693.89
1068.84
1135.03
1546.88
1723.76
626.71
444.87
1332.78
1663.03
1806.94
1752.25
2237.22
383.16
508.37
694.50
922.85
1041.61
901.89
549.79
773.84
1123.01
1155.72
672.01
393.05
552.10
896.82
1152.03
973.32
898.35
452.02
385.92
452.69
351.04
347.66
540.41
879.61
433.76
478.04
856.59
1037.33
764.10
605.76
852.01
1011.66
1009.03
881.10
867.47
1606.19
403.39
358.53
285.97
287.43
224.18
333.44
340.30
288.91
479.68
699.24
800.42
734.49
703.80
390.33
413.67
620.50
946.55
1075.33
866.52
839.97
670.92
379.86
329.61
312.33
1546.28
1127.38
1007.27
498.73
694.70
1320.77
1529.03
976.75
337.22
613.46
938.11
1078.97
1474.85
1151.53
515.24
286.78
1159.06
1345.86
1028.84
851.82
298.73
395.13
357.13
1202.21
758.70
654.85
565.39
339.34
597.53
1333.72
1875.74
899.25
603.30
645.04
393.37
2870.17
794.46
998.63
630.24
447.55
450.37
428.24
562.16
630.17
663.98
489.84
384.60
839.92
1038.79
528.13
373.31
462.89
346.23
503.30
536.12
446.25
316.93
492.77
1212.23
1670.85
2301.09
780.96
574.62
279.26
298.84
374.57
536.42
975.60
1058.28
672.36
327.54
425.13
1723.34
382.77
328.01
872.26
1172.72
631.36
439.23
593.79
513.80
546.36
808.49
952.85
805.47
708.61
313.05
511.72
277.07
366.04
460.07
561.43
530.45
760.31
735.17
910.89
1380.06
2161.71
1573.52
2243.95
2306.64
1107.61
756.79
579.12
380.02
1238.54
2260.29
2304.43
1372.52
588.51
656.85
532.39
337.51
402.14
473.87
637.36
321.83
429.78
1004.63
2117.36
2795.87
2251.43
1205.72
395.65
636.01
804.58
312.76
342.10
241.23
301.90
336.31
282.88
365.81
556.47
589.48
705.35
1194.89
1559.35
1910.68
1861.86
1362.94
653.37
879.90
1748.74
3562.38
892.31
1327.32
776.67
354.52
794.69
1138.70
849.19
624.02
794.05
727.17
527.94
2968.93
556.37
808.90
984.32
678.54
443.77
640.88
514.79
419.05
495.63
484.58
794.14
821.91
1254.16
982.95
370.36
354.23
261.17
334.14
297.64
268.07
686.01
1385.38
1875.81
1169.35
879.27
248.19
509.29
940.76
1502.90
1181.32
683.51
421.89
755.00
877.34
272.68
388.94
1577.93
933.08
576.82
887.56
1518.73
1623.61
930.07
376.38
402.80
949.42
1679.78
1459.97
1074.31
564.50
668.70
1325.92
1316.80
449.99
583.42
620.79
1245.95
1214.69
765.99
1287.34
450.85
780.38
689.94
432.14
536.41
795.90
1600.12
1417.65
369.04
412.91
501.01
1741.72
655.34
438.64
428.20
855.08
599.83
429.86
994.42
1062.88
653.14
290.37
490.44
3473.92
571.40
411.62
412.83
493.90
602.04
970.79
1114.70
975.59
749.57
592.49
274.82
2956.46
267.48
239.53
348.49
555.51
861.42
609.87
345.08
1043.92
1876.66
1917.96
1287.41
829.88
869.25
302.87
958.52
921.16
1015.67
594.95
267.60
334.52
617.83
1234.38
2371.26
2504.65
693.71
1196.48
2563.72
2630.86
2055.08
1153.45
327.46
331.51
266.36
406.41
476.13
886.38
373.98
331.60
375.33
357.77
690.44
512.18
595.68
710.32
872.85
854.64
580.34
345.30
424.99
1340.74
2773.26
3416.65
3122.94
1482.12
417.67
375.45
1044.79
1263.61
802.01
1605.98
812.78
295.89
409.32
692.47
712.64
408.87
472.32
1335.03
1096.38
642.27
658.34
1769.35
1560.58
1722.28
1388.04
719.14
805.41
2872.16
3154.91
1849.83
991.24
1068.44
734.50
366.65
272.94
269.77
589.56
752.13
865.41
1157.68
2041.78
2558.09
2032.44
1197.20
528.53
737.02
1792.51
1744.88
1668.04
2349.24
1682.63
699.96
288.73
307.55
836.81
1647.49
1568.09
661.12
294.97
645.22
1143.27
1309.25
2087.50
2826.68
2126.34
1070.53
647.62
2823.26
1735.72
780.50
340.14
599.65
525.21
402.42
757.58
1826.39
1645.74
837.32
346.02
1964.22
700.88
448.00
826.86
598.02
603.27
422.65
571.47
861.41
528.87
443.72
1791.65
1769.17
403.44
1148.28
1518.26
1342.80
522.29
297.60
692.08
1457.79
1172.36
589.95
451.35
1572.41
509.21
443.75
527.92
948.23
1433.93
847.95
338.87
350.91
526.84
347.89
833.90
1179.24
848.97
846.86
678.09
433.66
399.16
357.59
424.53
393.70
688.52
1051.34
2117.92
1477.78
724.94
2183.90
3572.64
3923.00
3791.59
3234.86
507.21
2068.64
3126.61
2750.14
2043.31
1302.34
594.24
1045.33
611.98
343.92
273.33
323.87
359.97
969.99
1204.19
984.58
291.08
686.55
717.14
587.66
791.78
860.52
740.79
349.53
385.74
534.46
1302.68
1560.47
1248.32
1316.80
531.87
570.01
925.14
856.24
468.51
380.94
738.91
785.19
570.91
272.58
241.36
795.33
410.38
693.63
744.95
695.64
542.63
483.35
472.20
810.87
1480.40
977.05
475.86
803.05
647.49
325.93
578.81
546.47
331.52
775.27
1569.53
1897.03
1487.24
1313.11
1262.93
1118.84
1308.93
1313.76
1178.09
1019.17
1486.85
1419.16
407.30
1784.33
2827.43
3493.31
3020.05
2207.35
832.83
434.37
463.45
406.84
1063.66
2135.04
1397.86
559.62
2632.67
1612.71
500.40
685.29
610.51
433.67
563.49
715.92
729.06
752.78
373.41
675.90
432.32
869.15
1724.31
1602.68
1663.07
543.70
335.07
952.61
915.54
568.27
692.32
1155.24
1010.32
778.04
1922.71
1800.01
1449.38
693.32
410.50
326.69
453.49
258.81
676.77
763.17
263.59
749.21
1982.04
2543.25
2396.94
2286.91
2860.17
2091.56
452.87
527.59
335.84
737.05
2137.87
1404.28
415.09
1146.21
2455.11
2208.68
2015.27
1501.69
379.71
1058.39
396.19
1360.93
484.85
800.22
670.12
477.02
270.23
312.17
570.06
905.08
1314.80
938.86
726.00
770.76
650.50
878.73
1223.67
2435.94
1910.62
800.34
758.82
1583.84
1365.67
619.52
378.43
495.65
551.30
910.90
339.14
316.15
461.86
443.57
392.50
404.45
509.97
1065.73
436.92
552.36
823.30
2770.71
2362.89
1905.23
962.27
624.14
1140.70
633.06
484.80
1075.96
1302.35
898.82
328.46
723.67
339.02
350.72
327.35
330.92
1182.93
2849.36
3034.31
1165.66
375.41
456.17
520.01
1184.40
891.94
1129.96
1476.77
2527.14
2859.08
1389.55
627.39
418.58
628.68
359.35
2798.15
1001.30
1983.72
2402.21
2082.25
1055.49
357.10
408.66
689.73
277.20
488.56
1144.79
2767.67
2517.69
1042.87
394.31
399.98
337.95
562.41
944.46
843.32
665.84
464.28
1552.24
3905.46
1632.87
497.50
454.60
653.41
729.49
715.96
447.30
308.02
630.14
748.42
583.75
3126.33
3867.80
2058.50
662.31
353.63
291.66
950.65
494.52
346.39
418.20
627.60
1022.09
1060.93
660.89
552.81
609.44
538.49
513.13
1067.38
1855.02
623.74
537.90
1185.91
1237.05
1209.39
1250.56
2036.65
1571.52
523.93
350.78
794.97
1685.63
1469.96
586.96
356.38
275.51
731.53
674.04
380.06
394.90
470.27
594.05
717.60
603.95
442.06
301.53
306.18
642.37
795.40
778.79
745.86
1364.57
1354.81
654.82
373.77
774.25
377.82
2030.42
2502.46
2857.30
1635.44
453.29
1278.74
1056.54
366.02
600.19
1286.22
1371.68
573.19
607.55
1409.70
1922.07
2459.18
1432.49
434.43
684.68
731.40
423.48
340.83
364.93
561.31
856.95
356.71
1703.34
2493.43
1345.83
926.42
717.08
830.55
438.56
384.20
1059.72
955.58
522.80
294.13
550.98
2026.13
1485.63
766.16
758.38
755.77
410.48
475.14
789.87
490.23
680.51
1080.75
1124.12
1241.33
601.56
927.25
630.56
355.28
590.57
1087.78
1049.20
451.83
389.39
682.82
673.63
1606.74
669.71
600.23
775.29
845.41
992.65
388.41
2024.29
2996.84
2392.11
2220.85
1521.66
877.42
786.83
1502.78
1320.71
432.34
628.76
395.04
567.42
546.28
804.23
966.55
1093.22
1491.62
842.57
353.20
592.25
430.30
1017.09
520.73
494.41
586.22
563.64
595.74
466.97
2189.45
645.73
624.55
245.27
287.33
565.27
613.38
969.09
1245.69
1082.69
593.49
510.45
2481.74
1331.99
621.29
332.43
487.67
925.37
2147.33
2761.88
2547.43
1475.22
1399.62
407.36
958.16
1436.45
2096.29
2164.43
1326.43
376.54
565.17
334.58
767.81
965.60
795.02
669.06
920.69
1103.34
1183.32
1214.66
696.75
858.34
1003.88
1226.45
850.19
1032.25
2754.88
3163.46
1190.50
503.04
358.87
420.92
483.14
324.43
361.93
492.16
309.82
414.60
296.69
555.91
1148.01
1681.74
1575.98
1003.52
320.55
1506.60
3505.21
2987.59
530.95
1319.10
962.32
1368.06
1266.11
2517.12
1750.52
806.21
384.66
433.34
441.53
381.41
330.25
314.11
490.22
990.66
352.33
1239.55
1333.98
1313.19
1561.88
902.42
352.75
321.44
390.88
510.98
2535.16
860.94
579.26
1318.43
2187.18
2064.43
1494.80
494.71
380.82
421.75
392.67
979.94
2787.35
2588.86
656.67
2092.58
3312.84
2078.22
1141.74
917.98
499.03
1588.92
1822.00
1269.64
554.32
377.70
449.65
1349.92
2915.17
2739.85
1068.79
357.76
2189.68
3233.24
3149.88
2589.78
1261.58
449.18
409.15
323.18
448.01
745.82
496.85
397.76
596.72
438.46
256.49
1346.06
2473.58
1318.71
348.06
559.52
1737.16
1594.11
1905.31
1273.49
446.93
1414.67
2535.85
1992.52
1703.51
1436.45
663.81
369.48
469.64
374.54
467.20
1264.21
1744.21
685.38
1022.29
2157.74
1095.76
648.64
736.13
418.23
692.59
1366.27
1946.56
2110.67
1043.02
2901.17
864.19
332.32
694.61
482.90
292.15
675.78
424.89
506.21
358.65
1009.84
924.45
876.34
987.94
394.44
652.03
611.24
353.75
465.38
574.78
743.06
793.59
1895.15
3315.62
3107.64
1453.46
405.10
567.66
1539.62
1581.10
2030.71
1708.10
497.33
378.32
520.77
527.78
1176.71
718.82
369.47
544.58
1473.19
1695.13
476.73
2324.02
3571.56
1974.65
408.47
1278.59
3386.71
3872.83
3854.19
3107.18
904.72
1289.85
2489.74
2409.51
3589.22
2387.26
422.99
1172.01
751.69
373.04
876.66
1232.04
550.24
471.89
934.87
948.14
690.65
432.22
645.03
636.35
432.79
226.04
312.56
339.79
418.27
680.61
592.25
409.68
582.45
600.77
506.77
2316.85
1071.82
1006.98
678.67
1079.03
1280.06
736.21
746.87
1234.22
1181.25
650.53
299.44
874.05
1429.71
1686.81
1102.86
1132.92
2034.69
2452.78
1370.24
672.25
2226.08
2040.14
3119.02
1004.14
428.03
823.22
439.53
1261.98
1565.44
1221.51
1054.28
470.60
318.65
2483.40
642.27
967.95
395.19
1319.21
2544.21
2987.66
2552.95
882.69
851.75
2098.34
2356.49
1381.15
547.98
1883.13
3167.05
2241.72
973.11
328.11
393.27
284.85
384.95
975.10
2680.57
3164.69
2126.64
909.80
451.55
1324.59
2854.02
3005.66
2054.32
510.83
900.74
1771.36
2369.32
2017.42
733.87
1176.91
881.27
475.19
588.59
584.86
379.38
277.17
362.63
1113.05
3023.76
2863.10
1063.59
522.37
339.50
320.07
817.83
330.81
1710.52
2435.63
2019.56
1120.29
334.81
380.32
885.39
2287.45
2782.08
2316.06
1330.31
466.60
363.85
893.41
1762.53
2395.97
1497.42
458.97
549.89
655.02
717.21
655.39
609.28
368.48
1409.18
1727.70
1572.06
2177.16
2294.12
1025.25
1071.39
2539.66
1838.35
431.03
451.24
386.27
490.72
583.10
1547.40
553.63
842.81
1139.20
425.74
659.27
859.48
1491.85
2248.15
1866.52
623.44
3197.42
3267.21
1327.84
1060.24
424.91
1432.19
1937.46
2599.74
3134.47
3982.63
3958.35
1621.37
2121.01
3880.40
3849.88
2947.44
1357.04
849.65
559.11
370.96
412.93
499.64
638.25
2423.28
1234.84
947.78
621.91
461.65
767.40
447.95
443.36
770.34
904.62
489.93
842.86
1011.99
861.48
2146.18
2401.48
1078.94
653.45
1032.72
437.61
1043.23
1443.96
565.16
882.43
2339.38
649.54
563.41
758.04
884.87
1973.14
2364.62
1787.84
763.31
677.42
302.87
507.31
1384.30
454.24
368.74
1012.47
1682.29
1276.30
732.03
451.36
1048.12
1261.53
724.80
1272.31
1767.90
387.82
390.38
313.24
475.82
414.06
1267.78
2498.65
2359.58
1282.66
625.64
2476.73
2437.71
2089.70
2170.01
1585.98
1142.10
662.50
1140.19
2550.90
2689.38
2066.29
1161.89
395.99
2064.76
3894.49
3241.02
1335.70
446.60
350.90
904.50
918.84
1014.17
1708.85
1449.47
555.25
638.86
1997.77
2727.66
2579.54
1717.91
593.05
318.88
334.41
376.85
2170.82
671.27
762.13
749.25
860.76
698.43
662.49
395.71
341.35
561.47
1353.60
2167.57
1195.24
574.05
619.50
361.67
1128.77
1309.61
1076.17
541.34
1256.25
1894.06
2590.02
2158.78
1374.49
855.78
1276.27
1385.54
1072.99
905.54
346.70
820.73
1106.42
1352.82
680.75
850.89
902.99
946.40
662.78
310.17
903.82
1686.68
2837.60
1085.90
1236.37
3160.97
3464.67
2289.11
439.10
1786.72
2251.13
1886.58
674.86
906.00
1862.73
2360.04
1664.65
829.29
2840.27
476.81
333.20
385.68
626.48
798.03
365.27
868.99
1140.76
590.28
277.11
954.61
2632.43
2853.69
1456.42
474.16
823.14
878.79
1217.94
1760.34
1614.77
975.94
362.77
1016.41
1120.88
1344.56
3062.66
3865.47
2148.84
521.43
804.56
329.51
2213.12
3975.86
2636.88
1679.93
431.68
566.25
235.17
489.77
552.12
2348.81
2354.20
1110.65
358.18
1267.55
2051.99
1296.09
757.78
353.67
322.86
658.22
445.79
456.01
486.12
402.84
529.90
679.92
900.84
1025.51
419.54
642.32
819.77
806.61
898.64
2032.50
1987.30
1159.24
1009.80
2291.59
1181.83
1052.76
1236.27
1801.13
1582.23
732.29
426.07
678.32
1019.90
402.63
313.35
364.06
1745.87
451.82
814.55
1333.19
1137.46
351.48
468.75
761.78
570.67
558.33
789.83
1072.62
2514.23
1881.50
1077.83
409.95
356.84
1355.45
1994.30
1953.62
862.34
667.34
1104.84
805.39
386.03
757.85
1214.95
1752.23
1705.91
1258.84
716.45
426.49
275.75
717.05
1292.23
1709.41
1502.23
707.46
364.06
337.63
601.03
818.98
976.75
1406.79
2173.28
1343.81
370.82
3817.36
1789.79
413.10
981.56
1261.61
1026.61
856.68
740.40
571.66
597.60
1044.66
1808.43
1433.60
898.82
1980.30
3252.94
1519.24
721.30
1025.50
790.37
532.29
355.10
613.72
2946.27
621.42
371.88
282.93
566.97
771.20
571.11
313.12
221.44
631.69
1261.66
1649.09
1498.31
746.88
489.92
733.54
847.25
1202.80
2776.25
3913.06
3153.37
1337.72
409.09
363.89
1791.68
1300.43
2022.77
1431.40
599.94
333.44
1550.87
2624.93
1516.83
405.80
356.85
879.81
1339.67
1032.64
568.01
414.10
924.96
469.04
593.55
1396.14
1051.35
1409.57
1198.02
591.84
629.54
1858.26
2148.21
3040.83
2675.71
1351.99
382.48
339.89
555.14
822.41
600.89
1350.27
735.88
1364.40
1384.22
849.78
362.29
317.06
388.16
376.87
423.98
980.40
1193.87
2022.24
290.92
1285.10
1696.24
2191.46
1808.00
546.07
552.88
638.19
542.70
390.42
244.68
503.40
616.33
491.05
242.65
420.33
683.80
637.49
600.81
484.83
369.09
668.19
1896.37
1494.82
1400.86
1796.55
1352.08
663.30
396.29
791.76
1042.68
589.89
2712.34
3685.94
2041.37
1351.70
1997.93
736.13
1050.78
2702.52
3163.15
870.98
1172.71
1420.65
639.37
403.71
793.30
350.31
339.41
555.50
693.85
676.86
771.21
800.52
832.68
305.30
442.94
752.42
799.67
1045.64
833.07
775.46
593.78
356.32
447.30
571.75
491.11
374.83
766.28
890.47
754.33
1872.48
924.73
1406.36
1302.44
572.77
315.91
1304.17
2532.90
2411.53
2165.02
941.01
345.97
1165.90
498.20
395.23
363.27
395.33
320.68
354.82
820.82
735.33
314.74
654.61
944.83
1547.55
509.29
415.19
421.42
336.04
606.06
351.47
504.89
1367.16
2198.02
1995.38
1823.00
2069.28
406.18
1328.43
1463.96
1194.87
414.95
328.97
295.20
329.52
528.63
663.20
1066.40
1300.35
705.69
453.53
276.93
337.05
541.07
364.90
728.84
803.75
696.67
495.50
665.29
1926.54
1839.71
2149.10
2224.18
1344.61
532.61
914.46
1099.79
299.87
1060.45
1403.40
1023.64
321.99
689.16
492.54
811.81
1311.13
1951.06
1606.42
554.72
1286.18
1987.54
603.98
1278.01
291.90
722.39
1387.41
1460.40
2358.95
2856.42
1875.27
761.48
2180.10
3039.29
3885.65
4027.90
3291.03
2069.77
495.89
1459.19
1750.94
932.65
666.60
766.91
1087.39
1109.87
1281.41
828.15
556.64
387.19
418.50
491.15
451.42
275.68
447.20
881.11
915.79
383.97
942.72
690.98
781.65
1053.85
1475.50
2085.16
2562.85
2869.15
3061.76
1580.79
722.49
2841.49
1693.28
849.46
403.84
2340.84
3754.05
3867.45
3486.66
2039.72
561.81
992.80
1553.02
1098.51
1153.38
1721.19
2167.69
2178.31
2387.39
3801.83
3241.83
1341.01
487.59
472.23
492.00
411.59
567.99
671.27
685.85
360.64
469.67
395.01
959.93
1045.08
622.89
287.48
483.83
652.33
945.64
858.74
604.31
701.96
799.83
872.43
1155.71
1417.49
1730.81
1345.10
1092.93
800.44
1216.05
1817.46
1109.86
669.08
2063.56
2700.81
1257.62
286.76
289.74
561.74
442.57
943.60
1910.22
2703.53
2677.58
2080.16
1551.46
594.88
2008.50
3906.17
3112.00
597.52
3175.79
3805.89
2789.87
1323.75
617.84
815.60
1753.50
2150.05
2030.87
1418.45
500.82
422.68
693.61
378.59
807.59
1003.33
1024.54
1077.06
305.59
604.22
638.50
1955.71
292.62
337.55
434.75
529.89
498.31
1037.77
1815.10
1347.98
1024.85
1009.04
686.48
1453.58
689.71
639.68
647.12
408.49
425.21
422.79
1828.74
3078.32
2179.11
702.51
298.98
901.38
355.10
361.32
490.05
258.93
562.76
479.72
350.29
978.57
1620.33
1109.83
404.47
613.71
779.33
980.55
734.88
358.31
1910.98
1155.27
335.96
468.63
931.99
1331.05
2111.04
1142.45
496.82
729.07
1862.27
2406.58
1837.29
483.76
442.06
394.42
325.70
312.30
518.89
2164.07
547.07
745.65
825.61
572.69
490.00
447.13
669.49
904.07
975.74
829.45
409.88
300.67
716.63
759.94
818.77
1118.12
2370.98
2227.94
664.79
1172.54
1335.80
745.64
658.19
386.62
460.05
1062.21
1791.88
1528.85
425.34
1045.17
2301.90
2189.69
1002.21
530.38
1185.06
1153.65
1026.70
1161.96
1837.76
1900.94
983.30
957.34
787.03
566.22
225.19
928.96
3871.12
2356.83
2044.93
1298.66
692.89
521.83
541.77
219.30
518.67
898.74
1020.48
1304.56
1662.51
691.75
287.58
267.77
694.94
723.96
573.26
627.10
1020.05
443.73
1024.44
1170.16
1644.05
856.97
417.38
264.90
724.65
988.25
678.33
398.77
289.69
249.20
281.99
476.75
1459.07
691.02
1392.03
1556.81
1085.24
1222.63
1347.97
797.39
424.09
390.36
713.29
1249.58
1258.73
424.06
537.63
477.39
505.67
346.44
929.78
733.14
379.23
1344.05
1990.07
1546.27
1331.58
636.73
380.79
556.23
1080.44
749.46
619.54
1469.30
1625.59
745.49
713.42
2444.27
3542.35
3101.93
2133.69
1099.03
1324.49
3903.17
3842.80
840.20
1125.30
1537.12
1860.59
1995.43
643.97
316.93
366.28
626.92
1021.47
1300.46
882.61
267.57
1208.53
2132.81
3899.49
2995.89
2531.73
2204.85
1185.27
280.75
340.87
384.17
466.10
418.75
413.36
313.27
1191.19
1114.99
813.98
418.32
730.41
1126.06
1361.20
1402.35
967.76
501.83
273.48
330.29
379.83
409.69
401.02
308.84
504.16
643.12
577.31
854.54
1448.53
940.95
394.95
337.81
896.89
418.85
842.44
852.91
725.40
742.26
1374.84
1577.15
1151.81
892.17
1041.84
424.17
1070.58
606.34
281.98
971.58
518.49
318.82
344.75
674.17
1473.66
1805.42
1848.43
1037.85
1311.59
337.71
532.80
695.56
644.90
794.00
1192.02
2712.35
3108.23
2883.52
2688.33
2345.22
1085.55
1665.81
2998.71
2315.92
1393.12
339.42
991.35
629.08
569.60
527.02
464.72
1531.10
274.79
356.74
236.34
282.96
1588.94
2704.23
2057.10
393.32
1706.73
2337.40
1650.28
1343.80
1013.14
1656.40
1797.53
563.37
236.03
346.82
449.00
1402.46
1766.07
1242.50
2649.03
359.05
360.70
1048.31
1405.49
1728.59
1715.02
998.08
403.60
208.53
590.01
1231.58
1671.51
1183.41
676.85
272.53
478.17
303.71
500.98
586.01
901.32
809.02
226.10
410.71
468.45
430.51
399.04
297.77
429.28
1003.73
2019.72
2240.62
2323.66
1563.94
776.38
239.85
605.89
1095.53
826.44
219.81
319.56
1291.59
2984.91
3245.67
2682.92
815.83
780.11
3061.90
1587.34
565.41
432.77
338.15
380.69
428.63
936.17
1141.56
490.56
242.37
291.22
1780.81
788.83
688.53
321.37
344.11
235.46
704.80
1350.98
586.26
437.66
739.82
584.87
313.21
549.95
468.78
531.80
553.88
808.40
739.87
832.02
439.24
381.47
760.23
717.75
497.89
1741.73
2357.01
2778.60
2520.02
1560.04
333.24
1129.60
1307.96
1281.30
712.82
365.90
770.77
958.60
986.53
1250.13
410.73
973.79
606.02
373.66
337.51
280.81
610.94
294.28
543.39
1126.57
1475.25
1927.04
1571.33
593.63
504.98
715.31
744.66
839.01
1423.41
1192.78
665.55
420.40
205.01
381.42
507.12
1094.72
1304.57
819.25
516.76
758.65
1542.22
1738.68
2156.10
562.56
270.16
198.40
486.31
773.14
432.12
196.65
350.58
453.72
788.63
1469.61
1222.22
741.42
515.82
378.38
707.89
434.67
271.67
394.78
951.05
1082.20
911.37
480.17
1024.32
1595.02
1318.39
406.18
1221.53
1372.64
1062.77
598.97
448.51
527.05
874.96
1682.26
2433.06
1416.42
394.57
1802.76
3197.38
3589.26
2766.79
1443.52
300.46
836.53
1223.27
926.92
560.02
876.86
1831.01
1657.04
984.67
779.89
667.71
380.31
284.18
404.53
433.65
682.26
1124.33
719.15
272.22
245.08
309.78
355.25
238.98
608.68
877.81
803.24
341.03
446.88
1457.27
262.97
219.20
555.69
612.22
287.86
889.60
972.88
422.66
1276.75
1578.86
1708.76
2588.84
566.35
522.91
701.36
1276.28
3224.19
3860.72
1903.09
957.33
3263.38
3421.51
1498.07
371.66
367.83
324.92
410.64
593.25
605.23
296.72
464.76
299.93
589.13
510.33
280.45
789.92
489.46
513.03
1465.45
1670.26
1009.69
310.03
661.26
742.31
830.03
858.19
1014.86
966.39
360.07
399.10
584.24
619.83
620.92
708.74
959.42
398.27
488.66
298.89
434.80
1329.89
860.21
1738.33
2662.96
2649.90
2478.33
2156.92
646.90
1818.35
3970.53
3909.82
2142.96
1177.80
2468.21
2073.13
919.24
582.71
592.36
395.46
729.42
673.31
984.07
567.34
1868.49
722.25
321.86
237.86
579.67
1007.04
1555.43
942.16
542.48
822.15
1503.39
1125.03
1882.57
472.37
458.59
1251.02
2237.28
1927.78
1259.47
1045.28
1138.62
1306.38
1376.19
879.30
1478.79
1939.81
624.03
1370.33
3312.53
3904.57
2634.47
1780.53
1334.22
423.86
278.91
293.24
298.66
356.56
1005.42
1781.97
2137.82
1724.72
1661.47
2187.80
1818.20
950.31
935.79
590.63
1354.93
749.42
508.06
1120.35
1383.76
333.95
499.88
1663.34
1813.85
2841.79
537.34
1054.71
1066.86
781.39
543.95
994.20
1583.10
1492.75
849.83
373.71
913.17
2051.76
1750.80
1326.45
363.49
219.74
439.50
644.51
535.72
1588.20
1443.95
584.38
546.34
792.81
888.63
595.42
431.96
594.72
917.31
629.33
535.66
727.73
1607.62
1549.35
626.23
957.73
387.55
538.65
661.10
425.53
419.29
658.48
709.67
684.06
639.35
608.28
350.01
436.61
744.50
493.35
503.19
385.78
259.97
398.53
288.37
651.88
491.89
420.04
557.57
689.02
2854.36
836.28
695.44
129.87
996.15
1136.65
1185.73
1222.34
1225.98
366.77
787.80
710.27
1448.79
1825.43
1454.93
656.45
546.05
517.65
722.70
584.88
283.23
270.53
965.25
1009.34
1008.31
2265.28
3642.25
3314.54
1911.28
334.21
817.52
1772.21
2177.43
1568.53
677.74
1299.90
314.92
221.63
418.20
465.30
866.16
531.77
849.22
605.05
290.80
404.51
228.99
854.02
1473.01
1381.95
1504.14
1884.71
1873.99
1659.59
1359.00
2113.93
2439.55
1493.80
964.67
444.01
2087.62
2285.41
2069.79
1832.55
560.36
556.76
433.42
230.21
1036.00
2074.92
2032.68
546.72
377.56
715.35
895.01
528.68
294.83
367.94
642.11
308.44
422.50
638.54
2859.46
396.22
267.64
891.81
1352.03
816.11
769.99
520.52
962.01
1650.79
1379.83
1258.60
2470.92
890.73
362.50
679.89
503.28
775.50
787.85
298.45
689.12
789.00
1140.17
1589.07
2944.44
441.60
959.42
1736.21
1874.39
2227.34
1463.10
310.53
1435.21
1602.62
396.11
328.72
259.72
342.88
293.69
261.20
766.88
1076.35
716.33
355.86
1266.68
827.59
395.26
769.80
639.61
778.61
402.92
997.04
772.10
379.06
596.17
308.45
316.06
972.26
2195.98
2421.25
2927.50
2830.22
2146.47
566.25
859.72
1014.54
428.21
723.06
608.04
310.35
726.07
1104.95
2614.47
1412.37
1275.11
678.36
557.68
880.95
527.41
240.05
745.21
1025.71
648.42
271.89
1059.67
1310.99
2120.03
2595.51
2141.27
808.86
492.65
2785.89
3212.38
2647.59
1293.40
2302.86
1373.99
966.00
1100.47
1591.50
1393.96
1236.86
981.16
862.22
677.75
221.20
3385.99
523.96
359.45
384.23
539.29
782.34
1244.86
1394.73
1681.08
1935.89
1543.60
814.67
1500.07
508.48
662.74
742.74
566.48
322.15
708.42
1025.58
1273.75
480.24
403.26
286.28
1764.22
764.21
408.83
312.52
276.07
239.49
543.82
392.14
306.68
433.96
919.60
401.94
729.60
1219.67
1491.38
1173.36
848.39
371.88
427.00
457.90
362.89
439.20
520.98
906.02
1119.53
1187.70
218.01
1101.29
854.90
673.65
1870.50
2984.17
3594.03
3249.43
1938.78
598.13
1600.38
794.34
619.44
1285.56
1104.55
280.94
555.47
624.49
485.34
346.59
359.84
304.04
1524.23
366.18
319.24
466.59
374.48
647.64
1237.08
953.06
794.62
2178.33
2405.90
1607.42
1737.38
3278.45
3281.36
2317.01
1301.31
1078.92
536.70
354.90
398.07
531.00
579.76
1253.48
676.58
611.78
574.36
904.84
1256.35
830.31
682.63
586.61
639.88
519.65
365.75
503.16
967.63
654.87
256.26
374.54
976.12
1217.21
1009.63
1071.13
1250.68
832.64
777.04
1411.23
691.92
567.12
412.62
281.73
766.14
1775.69
1490.55
1153.13
290.61
523.21
606.45
1290.01
469.75
349.29
461.10
269.63
568.82
581.37
532.22
358.79
706.39
1135.47
1347.61
521.11
501.02
494.70
368.85
363.86
281.78
282.49
335.94
277.64
306.09
983.22
2066.87
1774.25
1341.30
457.33
262.06
416.83
595.58
656.78
307.07
328.41
543.69
436.09
330.94
309.94
2912.34
341.24
332.94
277.79
387.48
973.48
1306.20
1245.88
644.00
410.42
446.13
996.64
351.34
1218.63
2200.83
1677.49
720.46
545.19
1416.67
2046.65
1561.71
634.71
578.66
1321.19
1687.38
1595.15
1602.16
1908.85
1332.69
788.17
503.42
1038.26
1019.95
541.05
450.16
1584.37
390.91
942.29
1593.79
1167.64
300.01
956.64
481.34
472.32
367.55
805.36
1229.54
1759.85
603.93
441.40
806.91
348.31
464.78
752.04
791.90
610.27
521.43
659.68
639.80
889.41
1879.26
1572.63
629.98
672.53
1111.65
474.80
1271.82
1726.67
999.40
552.11
411.07
1608.51
578.75
1177.31
2459.99
3306.35
2709.20
1309.54
442.80
1122.22
1028.59
871.85
1250.55
850.93
474.92
358.84
463.88
848.41
1206.21
783.33
460.07
643.56
335.29
462.64
408.78
799.85
346.94
274.33
409.05
450.96
461.70
571.42
495.91
477.22
475.59
522.47
674.36
517.17
555.08
397.22
393.15
289.05
364.09
503.91
759.84
758.88
521.58
669.68
1219.93
1039.12
1305.33
423.63
527.53
695.25
467.01
599.19
537.97
436.78
446.90
376.75
579.55
646.28
746.69
1418.60
1736.52
1562.18
970.47
636.63
361.67
1751.48
1474.79
351.12
1057.34
926.79
1984.31
403.02
463.91
1293.82
1989.11
2052.33
981.65
1136.12
2343.35
2176.76
1815.31
1305.10
690.65
282.37
786.92
884.47
1299.87
1062.37
811.66
694.01
843.82
316.71
914.81
2049.39
356.14
401.01
458.97
353.56
382.53
754.64
1582.38
1651.55
1517.40
1573.81
1601.44
1443.83
463.03
994.05
1322.84
494.89
571.17
761.67
605.19
615.76
892.03
314.90
346.78
811.05
656.04
736.27
590.14
448.23
454.96
670.46
689.97
426.68
493.45
741.08
1006.48
1080.95
812.99
347.91
373.04
334.67
320.58
525.81
558.95
287.83
367.60
317.13
421.97
802.44
2109.27
1896.94
1971.98
1356.67
540.31
386.46
322.90
344.47
525.40
869.05
659.56
238.78
2095.00
1654.31
1591.95
473.70
740.86
2160.96
2664.71
2101.17
930.72
1112.42
2276.28
2132.63
1407.17
1084.81
1226.70
1238.89
258.26
187.17
376.53
628.49
1204.89
993.13
1586.97
2136.65
1807.34
813.42
535.54
829.18
1417.37
1567.06
977.16
931.15
329.53
1019.78
3868.89
1360.27
758.18
366.22
685.05
1368.69
962.27
886.44
2651.69
2600.32
1222.68
396.25
897.89
534.99
538.50
567.73
612.28
888.19
572.07
454.01
903.15
1405.21
939.48
476.31
1948.67
935.62
857.53
465.19
246.92
356.81
387.30
294.62
203.01
351.00
451.09
373.15
337.53
427.78
447.63
378.60
329.61
495.54
712.22
696.15
883.46
797.63
558.76
523.24
346.14
477.08
559.22
353.73
442.45
545.62
604.56
366.51
413.31
415.33
435.19
675.75
672.91
779.24
2683.70
793.00
1016.81
1092.04
672.04
386.77
339.23
289.67
353.82
429.58
680.33
168.00
346.63
314.73
956.76
402.81
675.87
997.56
1202.29
420.11
685.49
525.17
449.81
916.91
769.83
376.32
449.35
243.26
507.05
718.26
1609.46
2001.15
1246.14
774.87
916.06
540.31
1050.56
654.01
862.86
965.64
254.97
336.34
259.40
287.84
422.95
385.55
324.52
311.04
332.74
1093.67
311.38
375.69
634.28
709.15
499.84
398.45
595.25
1001.58
1136.52
679.30
556.74
1914.76
1808.30
1153.92
691.81
317.32
1613.15
2853.65
2664.71
1321.27
379.04
303.15
806.61
2132.89
2486.96
2646.40
1721.83
530.48
412.69
721.48
625.07
491.51
691.84
1237.04
944.76
501.32
390.10
398.20
310.83
201.85
363.12
443.88
336.87
1203.05
1328.41
1055.35
322.32
539.55
266.83
393.61
513.35
646.26
1101.20
957.39
1111.85
684.89
636.34
468.22
439.45
562.50
470.90
646.98
1034.94
805.86
632.00
472.20
343.95
242.74
330.78
322.04
408.92
2582.85
1104.14
758.09
738.91
537.00
470.78
466.82
457.12
265.53
569.68
1340.05
1648.54
1618.77
847.30
356.05
449.12
838.17
1323.75
1561.85
1352.69
991.73
388.59
572.99
738.42
1798.31
436.61
287.44
409.53
349.05
860.57
2473.29
2067.31
504.45
409.27
576.85
544.61
2806.51
441.71
804.66
1182.29
1024.12
1136.64
1100.70
1164.44
1194.94
1148.02
725.16
742.70
584.16
329.95
404.33
415.35
743.29
897.35
501.38
420.41
351.61
347.16
535.77
465.14
2668.21
505.75
642.50
425.58
655.18
508.72
285.27
543.26
315.41
525.07
252.43
616.15
1088.29
1368.80
1011.26
659.67
536.84
745.44
979.35
688.64
329.74
389.58
502.06
646.42
1084.11
1825.74
269.31
280.73
358.21
455.65
1201.57
722.93
512.91
618.15
1006.81
1298.81
1445.66
1880.70
695.63
308.95
566.89
719.96
828.57
342.30
186.71
432.20
569.83
1071.40
1049.34
2075.61
1374.54
2164.65
1809.80
992.75
442.12
680.16
1006.77
1473.49
377.40
899.68
2942.32
1447.65
1427.58
1508.54
1503.83
632.21
977.89
1082.19
836.27
1326.35
1327.72
1100.90
809.16
