1459.37
1514.08
1435.83
1383.05
1457.24
604.90
608.25
569.25
625.44
780.80
816.36
727.38
2679.46
1240.32
1428.19
1360.07
1467.95
1317.47
1450.82
1262.05
1439.46
837.13
824.52
2156.69
1079.23
1228.80
1088.32
1032.36
1889.25
1920.44
2056.66
1754.92
1623.07
1602.17
1707.15
1625.30
1289.65
1267.91
652.70
685.40
668.90
671.09
571.39
649.24
803.05
1367.47
1667.53
1464.69
1055.99
1317.03
1517.87
1704.00
1641.17
1971.84
2056.87
1644.48
1631.72
2444.13
2483.35
2265.74
1916.59
1421.00
1376.78
1136.85
1431.35
2505.93
2540.26
2034.59
1927.55
1349.49
1424.57
967.30
1102.91
1150.05
1019.03
670.97
627.49
571.84
1257.37
1809.19
1475.85
1205.15
1112.17
1255.23
1415.68
1406.03
1502.65
1322.21
1073.10
1322.42
1819.62
929.76
941.74
1234.35
1140.77
1688.16
1519.75
1555.57
1084.54
1189.58
1337.04
2125.40
1487.95
1741.25
1526.57
656.35
708.89
534.29
513.62
714.57
712.38
744.21
2008.39
1254.12
1358.22
1067.94
1395.94
1395.48
1530.74
1333.25
1387.51
1054.54
1044.47
1877.75
885.95
918.50
820.00
903.50
1362.17
1392.66
1528.68
1152.98
1443.32
1655.37
2783.64
1314.10
1566.30
1512.16
555.43
576.82
623.67
689.10
657.59
667.60
642.42
1325.75
1859.80
1286.80
1065.64
1208.38
1453.15
1214.07
1581.41
1466.36
1450.96
783.34
1040.98
1473.10
707.90
846.28
991.52
847.89
1820.83
1398.20
1554.24
1194.84
1517.40
1329.66
1499.97
1493.36
1435.31
893.36
764.94
803.05
721.42
521.87
753.40
494.04
1296.48
1712.75
2942.93
2031.44
1719.41
1569.79
1725.88
2050.49
2603.17
2939.13
2253.51
1795.36
947.55
3862.49
2189.51
2430.84
2753.43
1472.97
1505.08
1286.80
1179.36
1251.01
1222.27
1316.44
4148.98
1616.63
1552.18
458.14
581.66
739.50
678.76
724.77
626.17
860.27
1087.45
1303.35
1435.11
1130.10
1496.13
1598.71
1434.29
1527.17
1647.72
1032.34
837.82
879.93
1079.27
989.82
979.74
1101.72
1511.74
1703.35
1614.47
1396.96
1286.12
1659.59
1361.31
1414.80
1544.66
1387.22
624.32
291.25
508.97
939.12
746.35
840.02
558.72
1408.37
1393.11
3003.78
1186.82
1110.55
1532.43
1501.73
1763.28
1478.19
1576.98
1056.13
971.63
737.42
2958.16
1079.78
1123.96
1019.51
1586.06
1634.36
1578.40
1253.23
1456.49
1257.25
1402.78
4250.68
1400.66
762.11
651.50
661.88
551.56
686.36
686.04
633.80
1328.93
1503.19
1573.30
1565.22
1406.92
1417.03
1561.12
1679.72
1521.11
1709.23
965.95
982.37
1161.92
1155.69
1687.49
1060.44
1136.72
1554.79
1552.76
1422.13
929.68
1454.68
1421.82
1468.49
1451.96
1720.25
1313.06
743.21
477.91
663.44
766.15
699.24
581.35
691.16
1292.67
1429.95
1259.88
1298.93
1304.64
1865.35
2142.47
2636.22
2547.81
2435.87
2058.19
1228.73
933.20
951.63
1479.05
1980.39
3120.57
2820.73
1595.46
1251.42
1711.23
1865.87
1502.92
1452.25
1807.43
2327.33
2471.84
2159.54
1579.28
1475.85
1118.87
625.48
540.93
1383.28
1175.81
1348.76
1299.69
1332.90
1417.03
1625.57
1646.43
1470.07
1469.93
1460.37
1254.70
1288.07
1206.44
1244.27
1056.19
815.34
1572.55
1320.68
1444.41
1064.62
1444.62
1461.14
1529.25
1582.91
1804.42
993.33
838.26
1092.35
489.39
526.64
729.36
557.84
1220.32
1212.95
1446.57
1390.13
1444.76
1412.94
1416.83
1286.27
1367.58
1312.41
641.61
957.59
1093.89
1308.90
1637.06
865.71
944.42
1489.14
1700.62
1417.51
1439.82
1396.39
1620.40
1464.96
1638.32
1698.49
1488.60
940.81
929.73
540.35
595.69
829.46
1150.28
674.13
1329.96
1475.31
1789.94
1422.80
1371.78
1819.14
1539.91
1510.62
1831.83
1474.97
1169.60
1014.17
742.54
1073.82
1194.82
1254.58
1421.88
1417.37
1527.57
1295.09
1444.78
1575.91
1430.30
1373.74
1963.49
1453.53
594.29
733.53
491.49
419.83
551.72
668.69
574.54
1270.95
1511.35
2498.04
1288.11
1405.27
1673.89
1426.52
1565.61
1550.44
1448.04
866.58
1023.58
774.93
779.98
1085.31
1061.50
1033.63
1622.96
1949.72
1476.40
1211.38
1848.87
1854.89
1756.07
1476.24
1937.89
756.61
560.12
480.64
763.77
589.30
570.96
971.74
1358.99
1268.09
1426.00
1083.03
1615.38
1448.84
1808.62
1659.66
1754.29
1864.81
1452.96
1190.41
1185.31
1236.13
2189.61
2313.57
1848.96
1825.97
1553.83
1277.55
1228.77
1417.95
1285.96
1339.49
1560.06
1467.09
1445.58
626.47
728.95
1026.19
974.34
680.03
864.63
1332.34
1581.01
1554.30
1443.09
1295.03
1396.04
1475.22
1269.63
1384.84
1574.52
794.30
586.41
534.21
881.06
907.07
1488.77
1053.09
1768.72
1639.14
1449.75
1242.10
1212.77
1742.65
1763.22
1490.47
1592.04
1788.51
629.52
773.19
1046.09
1305.99
1600.57
1406.75
1120.40
1601.56
1816.18
1642.15
1706.82
1333.23
1463.41
1572.22
1469.79
1422.82
1439.47
565.99
737.83
733.78
910.09
1507.83
629.66
922.60
1823.83
2446.81
2551.80
2327.65
1896.94
1491.04
1418.49
1496.22
3757.36
2062.42
2312.52
1693.37
868.36
722.29
818.94
1122.77
1161.45
1535.12
1296.76
1379.95
1444.64
1453.37
1423.48
1565.20
1582.04
1424.32
1445.51
1146.15
629.84
893.90
577.94
713.29
880.97
1953.21
1737.04
1617.17
1126.34
1416.65
1479.96
1548.35
1416.46
1398.21
1500.88
507.31
609.73
475.58
591.79
641.82
555.02
715.51
1396.90
1435.00
1276.66
1088.55
1356.58
1534.39
1454.07
1453.93
1578.66
1042.56
775.45
649.10
810.92
856.75
951.82
1326.94
1664.21
1749.78
1693.94
1239.46
1068.41
1565.51
1509.10
1911.82
2448.96
2120.36
1859.51
1143.77
927.38
913.67
801.17
612.51
652.10
1186.42
1393.29
1608.64
1376.40
4052.57
1436.35
1351.14
1349.67
1494.04
1372.47
523.18
485.93
700.74
682.59
680.89
927.56
789.23
1686.94
1215.87
1448.22
1202.99
1450.69
1541.58
1607.64
1470.45
1537.57
863.90
1446.48
736.10
596.45
699.25
913.52
719.13
1226.38
1166.23
1465.24
1174.96
1333.63
1259.09
1549.44
1384.33
1486.92
1584.53
1033.77
1144.84
1078.55
1006.27
1191.99
746.31
1011.49
1797.03
1931.16
1507.72
1325.22
1228.29
1734.26
1479.66
1453.05
1382.34
1395.63
541.01
736.58
595.89
623.53
746.07
922.03
1175.33
1719.76
1442.29
1421.52
1151.92
1578.28
1629.54
1419.21
1313.94
1409.19
1126.50
1708.03
2560.98
3093.45
2937.03
2383.17
1447.89
1718.79
1368.33
1734.58
2335.20
2088.52
1660.44
1604.25
1699.62
1889.78
2025.28
1207.55
1245.76
909.79
484.46
670.24
570.97
820.44
1621.75
1684.69
1605.89
1418.38
1355.75
1863.11
1479.93
1670.84
1380.48
1332.89
971.12
1116.50
1184.01
1077.14
1310.03
1457.98
1751.36
2007.78
1531.97
1364.79
1115.96
1356.55
1468.31
1303.46
1402.21
1421.65
856.96
1409.33
527.47
678.88
447.47
686.18
734.56
1373.67
1453.78
1265.63
1420.93
1556.38
2019.56
1601.87
1830.94
1707.75
1442.13
581.56
1081.01
794.58
929.21
943.70
936.48
1722.46
1515.83
1379.38
1535.19
1103.43
1250.43
1456.73
1407.14
1477.38
1433.31
1215.14
2180.19
996.38
1085.35
1259.43
837.83
1082.88
1145.66
1503.25
1192.31
1302.59
1259.50
3342.48
1597.68
1650.60
1777.60
1578.37
840.97
772.55
1193.57
2291.94
2523.03
2226.07
3237.71
1431.17
1240.80
1353.07
1555.90
1336.14
1238.38
1381.52
1786.79
1821.13
1717.31
3462.45
1198.29
738.97
473.33
721.18
512.92
647.71
1524.45
1422.75
1391.81
1308.53
4110.61
1475.70
1154.91
1331.34
1713.56
1521.58
1191.75
1133.15
951.64
1008.07
537.13
1472.93
915.90
1436.12
1532.96
2078.70
2043.06
1991.85
1893.39
1564.74
1378.78
1451.34
1005.70
722.67
1295.53
1805.41
2737.20
3618.66
3158.02
2374.48
1517.28
1533.98
2509.04
3520.06
3345.56
2480.81
1522.59
1502.31
1438.98
591.37
638.57
862.39
519.13
780.08
483.76
877.46
1681.79
1693.24
1894.88
1535.55
1532.00
1841.95
2039.73
2833.52
2868.39
1782.85
1036.77
679.38
1135.52
1289.02
1204.43
1104.06
1060.78
1481.23
1845.82
1593.85
1155.15
1672.88
1542.51
2109.36
2508.79
2845.60
2501.78
1697.41
846.55
505.70
1012.82
900.66
1209.60
1436.09
1280.07
1428.06
1745.67
2370.89
2394.72
2261.27
1514.99
1520.05
1560.67
1258.07
827.65
1347.48
1735.86
704.04
1290.53
1944.41
3207.05
3025.82
2265.03
1273.36
1636.57
1428.19
1560.61
1888.90
1640.63
1490.73
631.51
714.46
709.68
662.84
873.38
1621.39
1190.58
1652.34
1789.98
1713.33
1198.84
1494.41
1277.18
1404.83
1172.55
1424.53
1426.50
720.95
765.97
444.33
788.08
949.47
802.24
1421.34
1323.34
1289.48
1255.94
2309.23
1445.45
1758.49
1749.33
1826.95
1623.91
1073.35
881.46
992.32
1380.44
1799.59
3199.98
2783.47
3449.05
2833.42
1959.43
1184.57
1258.10
1782.87
1523.28
1508.44
1310.64
4255.54
1789.88
1202.74
784.70
862.13
789.72
727.73
1140.16
1255.75
1274.24
1334.70
3298.03
1502.56
1429.77
1403.99
1363.64
1532.79
1035.87
1033.32
829.44
700.68
755.57
3583.38
910.58
1686.86
1683.89
1851.72
1276.19
1374.20
1361.57
1457.51
1422.48
2209.50
2461.67
1482.66
1293.42
1461.10
1640.88
794.42
696.79
691.80
2030.77
2169.95
1599.44
1427.12
1210.99
1385.65
1375.14
1645.28
1306.83
1544.92
1250.84
1470.24
1814.12
1347.17
698.12
717.52
817.05
1579.20
1368.68
1779.00
1224.93
1746.19
2812.44
4158.01
4172.73
4161.67
4221.93
3318.16
727.41
4343.06
4227.63
4128.42
4248.83
4243.54
4277.97
2415.29
1433.81
1194.08
1400.74
1268.87
1457.98
1821.87
1457.86
990.56
1013.75
1019.39
822.89
838.39
1032.16
1086.57
2036.67
1889.09
1631.86
1479.24
1584.66
1614.01
1306.42
1557.30
1292.45
1501.62
923.52
649.72
1010.77
921.06
728.67
763.36
830.28
1320.04
1368.17
1472.27
1411.22
1588.08
1447.38
1761.06
1428.13
1454.55
824.04
685.32
898.35
1247.77
973.23
1250.67
1005.04
1661.16
1425.46
1689.83
1304.06
1058.29
1239.77
1486.73
1354.61
1560.13
1644.85
865.95
529.50
728.76
922.08
1077.17
973.19
833.62
1295.54
1366.31
1562.70
3319.18
1159.94
1318.27
1586.75
1453.67
1456.93
1335.56
554.69
623.90
784.41
656.20
3355.99
1168.69
1133.37
1760.02
2126.89
2116.77
2108.75
2138.30
2381.27
3648.59
4264.25
4283.59
4190.37
1434.38
3025.32
4209.75
4183.51
4161.07
2993.57
1942.29
1458.25
1510.78
1223.99
1396.87
1661.46
2251.91
2178.82
1754.84
1803.25
1120.92
920.68
835.72
773.88
400.54
852.30
899.85
1354.39
1272.92
1234.36
1097.65
1637.98
1741.99
1535.35
1481.39
1434.83
1185.47
542.75
658.93
845.50
944.75
699.36
636.49
871.75
1252.43
1424.09
1799.50
3083.07
4227.28
4207.17
3421.70
1833.52
2178.98
3670.40
3874.85
1927.53
1071.01
2488.51
2506.82
894.24
1253.39
1407.48
1350.36
1186.23
1218.96
2848.73
4182.96
4236.23
4225.41
4206.86
2624.16
1432.82
4166.80
4267.38
4136.88
4197.59
4157.80
4236.05
2655.13
1398.89
2746.22
1456.11
1841.26
2173.22
2014.93
1548.55
1109.90
906.78
829.07
695.62
772.43
2816.32
506.53
942.51
1675.84
1960.76
1941.43
1532.21
1665.63
1568.83
1702.37
1494.66
4224.00
808.90
564.10
557.28
493.26
516.91
1027.02
878.47
1502.43
1158.42
1462.28
3869.44
1451.67
1763.69
1624.45
1325.01
1387.20
1397.63
689.65
1294.56
2538.85
4254.80
4251.37
4241.60
4210.20
2098.81
1390.01
1679.31
2690.21
2683.69
3123.28
3026.73
2406.64
2320.88
1155.88
1082.37
1589.66
1464.83
880.63
858.00
739.53
869.87
1524.76
1491.74
1281.80
1192.45
1479.66
1507.26
1724.58
1446.73
1577.37
1002.01
1218.65
1787.03
2597.38
3226.18
3870.77
2093.76
1419.19
1294.06
1545.86
1970.17
1224.95
1449.81
1666.56
1703.01
1769.63
1405.96
825.94
1064.32
1423.81
1534.07
951.16
531.71
740.69
1548.28
1440.48
1230.24
1263.00
1560.64
1547.82
1630.02
1762.49
1436.81
1327.17
1124.46
1168.33
1103.70
667.26
798.53
844.99
1166.55
1978.60
2325.76
2709.03
2466.43
2660.64
1735.67
1492.75
1347.98
1827.78
1156.04
751.98
445.70
822.97
1368.90
2728.73
4253.87
4192.60
4083.89
1824.49
1677.12
3482.03
4264.53
4309.58
4215.50
4034.04
2478.28
1384.80
665.76
490.60
1400.86
1786.08
1929.18
1661.79
2020.38
2060.06
2254.09
1681.21
1521.94
1717.35
1557.41
1569.82
1450.80
1288.56
1114.02
1375.86
1103.64
821.98
547.28
1044.09
1040.24
1479.40
1245.06
1573.01
2225.12
2685.46
2728.86
2375.37
2059.66
2136.65
1607.68
1135.38
1013.32
729.12
1054.02
487.28
751.21
1211.05
1042.64
1418.40
1517.00
1600.35
1988.81
1696.36
1315.27
2023.74
1408.07
651.69
489.70
431.56
889.69
631.01
830.59
753.33
1314.59
1585.06
1810.76
1219.18
1323.85
1821.16
1313.00
1389.90
1621.62
2024.66
2080.23
1455.70
618.95
1064.74
859.48
789.05
950.59
1331.63
1491.20
1540.80
1522.10
2439.32
2600.12
1938.14
1540.73
1441.08
676.57
606.10
583.34
1188.90
2247.09
2955.67
2424.84
1801.72
1149.59
1950.90
1160.34
1448.11
1954.39
2341.46
3209.93
2607.96
2410.75
2101.47
1267.33
681.52
1720.23
1233.36
1152.54
1326.64
2210.82
1681.02
1424.11
1095.45
1211.83
1561.60
1844.30
2522.88
1511.07
1188.66
617.60
773.88
692.62
580.91
926.63
1035.75
1344.52
1473.11
2260.15
1341.23
1279.63
1450.79
1346.46
1461.22
1413.51
1298.46
862.44
878.33
1360.04
2592.61
1210.86
1148.74
994.92
1557.33
1172.31
1500.59
980.82
1379.94
1355.64
1415.00
3091.85
2299.37
2262.15
2037.69
2361.93
1766.20
949.60
761.72
1167.42
2462.46
4090.28
4190.12
4164.62
1953.49
1224.03
2624.46
4145.75
4298.99
4282.74
4230.13
1853.76
1688.65
4261.23
4205.67
3530.80
1794.10
898.89
1619.58
1462.91
1397.14
1120.80
1410.23
1446.74
3845.56
1713.55
2379.54
3196.76
4165.41
4179.27
4207.04
4233.05
2169.93
668.95
2201.70
4242.31
4205.80
2448.40
1382.86
2250.93
3625.84
2362.70
1450.10
3440.35
4237.04
4257.22
4209.94
4058.33
2194.82
631.55
982.12
2146.03
1874.42
2233.79
1836.93
1827.90
1799.09
1640.44
1734.48
1637.89
1123.58
592.80
873.26
820.69
782.53
658.82
655.01
1122.18
1363.27
1489.26
1447.80
1306.36
1485.54
1565.35
1721.34
1498.26
1577.47
826.83
692.22
882.64
896.17
889.15
1172.26
1607.62
2833.13
2822.85
2099.01
1175.53
1104.11
1391.64
1370.47
1523.03
1139.32
1409.86
650.95
698.31
1086.85
818.00
757.29
856.19
708.76
1457.48
2007.03
1936.83
1481.21
1395.27
1527.14
1452.16
1418.97
1487.67
1116.82
936.37
2042.30
2790.58
3032.26
3275.97
1712.64
1392.06
2555.13
2740.45
2436.46
1361.55
1356.83
1380.09
1688.80
1378.11
1506.75
951.51
1313.70
2360.05
2952.05
2672.06
1907.32
758.83
2558.45
4003.64
4285.42
3419.39
2435.30
1321.51
1322.72
1717.97
1696.86
1414.87
586.53
585.50
820.12
1472.04
2410.84
4260.60
4203.33
4243.99
4224.14
1915.21
1516.58
3040.76
3717.48
4277.13
3389.35
1878.31
1148.77
892.09
1911.53
2197.18
1762.26
1168.72
792.13
1887.00
2520.20
1085.23
1436.42
1241.84
1374.28
1461.03
1514.61
1404.28
1520.38
813.61
1590.99
1772.09
918.88
1036.83
1595.24
2733.43
3193.82
2910.47
2630.53
1705.90
1386.36
2330.41
3544.82
2970.28
2632.36
2079.92
1203.62
619.12
884.57
799.13
870.32
589.72
902.73
1971.54
1361.14
1598.74
1849.03
2486.43
2914.85
2548.19
2353.51
1973.76
1440.13
1003.78
1502.46
1373.42
1467.75
1251.80
717.82
1893.19
2611.21
2956.98
2682.86
1511.03
1442.68
2378.39
1721.99
1575.38
1505.48
751.07
831.03
1097.51
816.16
838.94
498.62
588.64
2195.57
1204.57
1443.62
1211.61
1282.90
1444.82
2011.85
3118.69
4177.08
3709.45
2044.00
1791.63
771.39
1375.30
1953.15
1352.50
676.13
1533.85
1493.00
1450.16
1210.81
1234.89
2808.36
1389.68
1670.40
1338.27
1220.99
1273.55
1986.02
3181.21
3531.94
2182.61
1173.59
3737.39
3041.66
3908.15
3920.65
4277.36
4090.56
1994.25
1442.38
1431.85
1889.09
1597.13
3245.28
1412.65
1411.77
1347.61
1324.75
2550.60
4210.01
4242.77
4094.19
1486.51
1466.07
4242.30
2242.56
2799.52
2846.05
2183.67
1231.87
688.62
569.95
819.25
710.38
889.26
3153.85
1415.83
1744.46
1515.64
1493.39
1453.64
1640.76
1524.53
1661.81
1394.04
1270.86
1548.86
1803.17
1988.91
2008.99
1056.03
978.25
1457.56
2096.39
2348.40
2146.86
1662.66
1836.68
1495.14
1620.39
2168.35
1632.13
1709.65
1633.80
1669.58
968.43
477.78
590.29
901.21
1710.05
1664.93
1959.16
1726.37
1716.12
2297.42
2442.20
2149.64
1834.03
1637.69
1549.13
2745.80
2388.85
1516.35
836.79
685.31
780.41
1469.94
1501.01
1599.02
1327.44
1640.69
1790.86
1515.85
1486.13
1364.46
1109.27
542.68
494.23
695.69
664.34
592.95
777.23
1089.06
1495.90
1289.02
1161.31
1418.27
1547.30
1411.48
1713.19
1335.18
1327.44
833.49
664.15
494.74
825.97
961.87
738.74
759.64
1474.41
1838.75
2198.84
2069.65
2427.85
2008.11
1768.96
1689.88
2563.74
3834.58
4234.49
4234.53
1454.32
1274.33
2866.13
4198.06
4248.56
4190.67
3344.27
2309.28
1322.40
1259.09
1411.27
1494.06
1483.96
1617.57
1487.38
699.27
692.65
840.66
793.14
918.00
1166.47
1392.92
2041.39
1898.61
2054.88
1555.92
1860.90
1744.38
1503.52
1366.86
1536.96
1449.47
912.52
896.37
853.78
461.79
1285.51
2085.21
1856.94
1512.18
1632.78
1695.74
1899.26
1586.78
1619.02
1728.09
1775.90
1583.62
1487.17
1099.43
1032.01
973.94
656.41
575.67
752.87
1419.82
1851.56
1899.64
1096.49
1492.42
1509.80
1695.85
2113.59
2308.13
2022.45
1432.21
878.49
1056.70
1442.84
1463.26
1473.40
1249.10
1846.57
2030.16
2099.75
1314.18
1407.80
1436.47
1445.29
1791.29
2049.26
1826.27
1012.52
1306.80
1653.60
1054.19
674.33
766.32
1177.97
1389.65
2089.22
1910.40
2106.56
1516.22
1427.18
1597.49
1704.77
1555.86
746.12
683.80
835.49
1116.07
806.31
1737.32
844.17
1373.77
1102.33
1354.65
1285.99
1420.24
1467.04
1731.59
1630.68
1919.11
2175.63
1615.77
1247.85
811.51
486.27
682.06
997.70
1247.52
1588.55
1251.26
2355.66
3539.74
1462.00
1455.78
1547.12
1461.15
1487.94
849.01
819.91
720.34
585.95
690.73
2232.03
1491.98
1662.64
1906.44
1945.66
1918.14
1446.37
1289.34
1919.58
2594.49
1833.49
3489.67
721.62
801.88
937.61
1250.41
1427.27
1385.75
890.03
1237.87
1450.16
1226.35
3648.41
1740.77
1626.86
1611.38
2100.48
2213.46
2198.86
1915.18
1154.63
950.57
1386.93
4276.00
2236.00
2320.63
1595.33
1417.63
1375.99
1358.09
1666.00
1660.80
1668.77
1492.97
3533.32
1269.68
1273.29
565.12
695.42
709.35
630.75
862.10
1412.66
1580.53
1527.66
1392.97
1405.39
1360.02
1603.94
1589.07
1610.36
1611.05
893.38
562.19
1366.54
1747.13
891.27
695.58
822.56
1310.56
1649.78
1392.59
1338.47
1328.54
1509.13
1319.11
1581.20
1821.13
1929.91
1617.53
1605.64
1561.04
1980.17
2826.18
3101.22
2718.20
2592.54
1849.59
1474.83
1751.17
1884.29
2009.05
2353.54
1603.78
1330.41
768.08
566.87
775.23
953.77
1083.45
710.44
1417.39
2440.84
2623.52
2816.45
2202.21
1728.86
1381.40
1686.87
1732.76
1938.78
1857.04
939.86
1200.64
1994.23
2295.82
2448.64
1633.96
1358.45
1633.74
1298.00
1964.94
1627.38
1449.78
1213.62
1503.93
1595.46
1609.18
1020.37
838.59
1091.84
902.55
945.68
1102.14
689.30
1172.14
1553.49
1522.86
1489.95
1235.52
1567.34
1564.50
1547.82
1576.62
1555.23
1193.53
1498.28
1238.02
1427.25
1932.43
2080.55
2261.10
2785.81
1889.24
1310.30
1857.63
2049.37
1917.33
1599.63
1764.98
1480.09
1455.58
815.13
711.83
490.86
554.51
811.00
652.77
711.22
1270.26
1384.10
1454.78
1408.02
1454.36
1508.66
1443.85
1863.27
2731.89
3418.99
3597.66
3367.96
2422.65
1005.01
2145.82
3298.35
2352.73
1812.55
1583.29
2343.43
1236.43
1389.90
1343.29
1303.63
1285.17
1444.34
605.00
1225.96
1786.02
2551.99
2604.97
1632.60
1090.27
1474.89
1554.15
1427.22
1556.46
1441.82
1351.06
1427.81
1467.77
1933.45
1405.34
763.10
452.09
756.65
886.72
513.61
808.93
1031.13
1613.78
1351.36
2557.80
3264.77
2709.68
2097.64
1757.50
1491.99
1573.86
1466.12
1352.90
1895.80
2606.78
1911.15
633.12
1092.03
2074.67
2599.21
2339.11
1489.27
1778.78
2361.50
2943.58
2329.37
2449.45
1495.78
1363.26
1894.65
1897.34
1893.12
1232.48
884.91
799.34
1408.73
1711.50
2085.04
1526.32
2828.09
3283.31
3105.05
2520.65
1806.47
1481.32
2241.26
3036.24
3360.96
3754.54
1364.00
707.70
767.89
1505.73
1291.40
1410.93
1312.39
1253.28
1403.48
1711.83
3242.63
1362.83
1055.22
1095.36
1169.42
1046.63
851.06
675.08
755.71
1108.12
1514.86
3161.38
1679.43
1372.41
1535.03
1410.73
1465.63
2219.45
3561.39
3602.11
1950.89
771.88
4224.65
2437.59
2013.70
806.54
1424.70
1438.50
1250.03
1348.60
1950.06
1467.60
1489.95
3466.50
3608.57
4250.50
3687.82
2347.81
956.08
1540.28
2361.28
2542.99
2178.40
1574.69
3243.11
1806.15
1356.22
1610.87
1825.86
1695.69
1709.40
1795.25
1388.16
826.77
601.69
874.50
1270.17
1247.63
1552.00
1438.15
1345.03
1490.51
1628.45
2039.44
1903.34
1890.01
1516.05
1539.31
1517.14
1608.07
890.08
772.34
1284.88
1462.98
1589.31
1273.94
1370.15
1414.23
1281.60
1148.60
1304.08
1476.00
1467.34
1815.87
1436.90
1432.20
600.46
910.47
1311.28
1305.81
1086.62
1379.69
1765.13
1917.26
1985.96
2029.69
1690.58
1508.77
1535.24
1844.47
2410.33
2872.91
2597.67
1634.12
623.27
809.06
1374.76
1634.86
1812.78
2150.43
2589.60
2387.29
1844.30
1454.83
1559.49
1701.00
1793.62
1881.12
1995.12
2023.08
1740.85
836.77
734.21
714.65
643.78
977.51
1398.53
1485.21
1436.45
1326.20
1356.00
1485.08
1609.70
2163.42
2323.82
2886.33
2495.12
1822.42
1180.95
784.56
1382.03
1900.62
1148.88
1541.01
1978.85
2294.17
2030.08
1736.05
1486.90
1454.56
1735.78
1489.92
1045.91
849.34
1386.44
1410.21
895.27
727.49
644.13
1016.01
1381.14
1460.77
1438.81
1334.62
1622.78
1393.98
1661.58
1409.31
1647.34
684.50
621.54
548.78
639.79
1056.06
1334.47
927.41
1238.52
1716.78
1793.84
1911.18
2490.74
2130.58
1738.23
1688.93
1601.24
1689.90
939.11
662.60
1134.60
1115.45
1690.06
1836.15
835.38
1399.40
1659.02
1235.79
1182.45
1298.17
1702.99
2014.40
1708.14
1587.79
1052.45
897.06
1051.07
856.32
791.63
1077.76
1375.74
2016.14
2794.00
2783.80
2408.73
1532.28
1612.60
1705.66
1666.48
1500.61
1709.89
994.89
801.64
1773.49
1538.54
1090.72
627.69
653.20
1840.86
2149.19
1676.02
1356.81
1437.27
1847.58
3348.72
4244.61
4198.99
2574.99
776.26
2210.52
1997.38
1801.47
1325.70
705.94
1108.70
2946.60
2318.76
1580.24
1231.96
1412.78
1388.68
1411.77
1334.33
1348.35
959.49
655.04
1781.37
930.63
885.15
598.11
706.29
1159.67
1248.68
1311.03
1092.70
1362.18
1426.86
2520.67
1386.88
1449.43
1799.81
1473.42
1369.53
1067.65
602.66
625.98
986.39
767.89
2887.67
3010.84
3299.70
2465.21
1840.01
1304.57
1446.04
1351.01
1224.86
1537.30
751.47
3676.84
806.72
893.48
1576.21
1493.95
1127.68
1334.61
1296.43
1406.71
1122.35
1447.09
3615.10
1415.92
1290.34
1707.14
1545.48
1343.41
971.35
969.03
1547.69
1744.29
1983.48
3407.85
3849.71
3242.06
1746.85
949.71
1420.44
2439.18
2118.44
1487.18
1431.98
867.93
2599.77
476.47
599.26
633.92
1318.71
2211.13
3319.39
2970.42
2508.14
1882.96
1423.89
1409.11
1626.70
1817.45
1900.42
2085.21
1226.26
997.39
1449.07
1596.81
1601.08
1368.91
853.36
1898.13
1833.63
1821.65
1106.10
1519.89
1535.35
1475.00
1423.41
1726.81
1289.19
609.32
472.49
473.80
646.99
692.85
913.25
1223.84
1634.12
1314.64
1362.33
1186.14
1529.48
1385.68
1621.19
1172.98
1581.20
764.11
724.35
1003.52
958.94
1390.48
1089.89
1149.65
1958.07
1704.63
1555.93
1227.67
1364.44
2771.65
4166.95
4216.99
4215.15
4209.70
4167.42
1048.37
4176.07
4253.81
4169.17
4152.33
4232.42
4177.74
4215.32
3666.89
1582.92
1465.22
1435.87
1402.39
1460.82
1544.80
1383.41
1118.53
1302.44
1322.81
1376.60
1440.08
1615.85
2021.10
2112.63
1823.43
1606.52
1474.01
1673.64
1627.68
1540.60
1656.48
1576.73
864.72
719.41
539.73
913.94
1144.24
1072.53
843.60
1654.90
1891.79
1848.72
1460.35
1674.28
2000.26
2130.21
1709.96
1538.97
1455.14
761.44
626.84
907.80
1203.36
626.65
887.29
929.23
1537.83
1794.14
1681.93
1774.90
1970.11
1638.02
1680.50
1396.17
1479.58
990.01
822.78
1250.17
656.76
731.82
560.76
1090.16
1455.44
1750.93
1446.57
1470.82
1313.60
1987.98
1285.95
1452.67
1369.53
1252.29
862.80
1493.98
1963.56
2287.95
1587.94
799.46
1168.01
1384.31
1543.51
1498.97
1177.35
1203.81
1508.54
1434.96
1436.48
1427.65
1376.68
1728.71
1412.16
641.96
658.00
898.85
706.70
652.89
1631.13
1679.52
2863.15
3514.58
3687.34
3071.69
1925.89
1490.64
2790.69
3368.43
2233.12
807.37
983.92
1510.48
1510.67
1462.31
1283.79
1387.27
1425.33
1324.87
1239.30
1595.20
1794.30
1515.42
1433.93
1533.49
1465.69
768.72
608.63
589.48
633.85
925.39
676.52
1331.63
1509.22
1410.88
1142.87
2143.53
1351.23
1428.09
1415.57
1647.67
1725.43
1452.54
1273.82
1990.53
2448.82
2184.65
2463.29
1104.46
1455.20
1349.12
1388.38
1057.39
1388.76
1253.99
1429.63
1345.62
1576.56
2799.38
2239.04
2545.17
2423.70
2277.45
1256.88
713.57
1436.79
2389.50
2205.13
1782.06
3123.95
1354.71
1408.31
1397.03
1564.85
1409.36
746.06
924.56
897.10
1185.87
1226.15
3137.93
1442.26
1985.84
2106.01
2247.66
1703.95
1374.08
1332.98
1841.17
1773.44
1720.12
4246.68
726.65
763.35
417.44
654.79
799.12
696.88
1130.51
1688.71
1967.61
1479.18
2723.38
1352.03
1603.32
1402.78
1672.21
1843.36
1869.79
1860.58
2035.85
1881.02
1198.44
673.01
1104.65
1637.91
1262.50
1362.99
1395.62
1197.23
1452.37
1823.62
2264.35
2102.22
1716.40
663.02
1834.19
1984.30
1465.09
1025.99
740.64
613.11
1386.61
1299.25
1398.88
1116.15
1289.67
1224.49
1441.85
1302.22
1509.55
1524.79
1444.15
1463.93
1588.86
1024.07
1143.19
1311.57
933.70
1574.15
1797.84
1932.98
1543.77
1479.37
1756.88
1722.81
1837.64
1688.31
1179.51
769.90
699.14
725.90
518.90
1424.55
1648.73
1411.54
1391.58
1253.05
1450.70
1905.28
1718.61
1617.19
1805.14
1773.68
1718.79
762.22
1005.28
1741.49
1810.25
1211.45
614.29
616.27
1470.03
1719.40
2590.65
2254.91
1636.98
1448.60
1517.01
1941.44
2322.67
2184.95
1083.68
561.70
721.61
1055.95
1396.33
674.72
678.70
1386.40
1399.44
1397.58
1805.79
1361.83
1450.09
1330.38
1540.40
1327.39
958.54
834.81
861.91
547.30
673.12
1267.60
897.81
1087.49
1499.91
1570.76
1456.94
1680.75
1665.59
1911.66
3080.09
4041.94
2958.56
1017.22
1168.40
2156.40
2050.92
1582.93
716.54
1484.81
2438.47
2724.49
2770.89
2374.80
1215.16
1262.43
2555.03
2276.16
1806.39
1189.08
704.46
572.88
1774.96
2534.58
2465.48
1090.26
877.47
1128.94
1392.19
1619.93
2469.35
3497.01
3158.29
3185.37
3465.26
3600.70
2318.68
1001.35
777.39
1851.13
2249.22
3156.54
3298.54
3229.85
2584.22
1627.29
1847.21
1150.14
1627.23
1519.84
1686.96
2000.21
2264.06
1537.28
910.37
863.53
1173.90
1711.51
553.83
634.41
1794.65
1783.17
1664.98
1435.50
1845.08
1911.17
1642.08
1193.84
2157.00
1493.71
720.73
1737.75
2455.44
1664.90
591.79
1673.01
3000.83
4077.58
3325.88
3420.97
1455.36
1360.78
2304.57
2641.16
2176.72
2094.74
2418.32
2412.33
1481.67
946.07
1834.42
789.05
1136.89
1020.47
1455.40
1420.95
1343.81
1258.40
2022.97
2109.20
2320.97
3130.75
2462.68
1259.14
498.73
1661.02
2872.51
2728.44
2172.59
1652.43
1766.92
1257.83
3299.66
1416.13
1585.83
1541.97
1894.19
1495.52
1579.67
1432.02
1114.92
1126.25
1499.92
2754.49
2464.48
2358.64
1460.81
1650.68
1659.32
1536.77
1229.09
1364.51
1599.51
1267.46
3601.42
1746.16
968.85
605.27
465.95
591.33
554.18
596.34
732.08
1139.70
1459.13
4082.84
1525.72
1086.80
1336.99
1373.99
1445.54
1575.50
1631.23
1540.57
1703.89
1419.92
2530.12
1117.89
682.33
649.65
1300.86
1181.71
1408.31
2635.95
4188.39
4149.68
4150.26
2648.22
1577.98
2843.79
4200.39
4212.89
2866.99
1185.88
873.92
1345.65
1090.37
1315.73
1127.01
1465.83
1875.52
1697.88
1358.30
1860.32
1634.46
1231.27
953.96
1318.49
2217.89
2480.87
2382.39
1874.84
965.60
1050.89
1356.37
1243.95
1692.43
2225.80
2415.67
1669.29
1563.66
1818.80
1675.51
1177.45
1387.11
1461.22
797.06
624.67
1259.69
991.43
1419.31
1181.32
1507.28
1180.88
1392.85
1551.37
1636.56
1457.13
1168.23
1291.80
842.58
751.38
1328.55
1911.61
2122.92
1466.93
1562.18
1661.26
1573.88
1335.00
1522.70
2049.50
2831.18
3782.51
4003.94
3655.72
2105.13
1271.12
2789.34
3186.93
3327.93
2641.15
1907.43
1511.24
1498.80
1432.48
1638.83
1385.23
1789.57
2467.72
3436.18
4157.07
4191.78
3794.21
1735.79
512.09
929.50
623.38
1084.85
1404.07
2280.40
1499.51
1436.11
1900.69
3156.91
3340.44
2973.11
2763.37
1616.94
1329.64
502.63
543.83
527.55
780.83
1371.05
1460.82
968.13
1091.22
1433.39
1342.76
1271.63
1093.97
1594.64
1769.19
2101.54
2007.11
1627.13
1363.68
618.26
1150.43
1453.75
709.09
823.68
1955.64
2267.40
1512.74
1379.54
1119.51
1594.85
1720.94
2814.91
2303.86
1577.79
728.67
501.79
488.99
619.90
668.97
697.95
672.89
1318.46
1610.52
1426.73
1136.69
1319.24
1338.53
1453.81
1600.18
1927.82
1639.36
1057.84
886.91
1486.74
667.36
915.62
988.92
1419.36
1848.00
2059.03
1566.04
1321.68
1455.72
1836.28
2680.53
2745.96
2404.55
1591.63
604.45
2065.14
2678.50
3001.62
2818.71
2213.38
1922.57
1934.09
1409.02
1585.64
2854.57
4183.50
4060.60
2241.23
1468.58
1975.30
2085.49
1324.99
1569.43
872.83
1276.79
810.77
753.94
1752.71
1637.96
1821.28
1737.73
1589.16
1579.68
2658.71
2144.29
1430.34
1490.91
1562.27
854.32
761.18
1221.01
1914.64
1940.63
1549.99
2625.96
1523.98
1338.62
1303.18
1301.95
1378.92
1502.74
1979.73
2095.65
863.25
726.32
1988.46
569.63
572.39
963.22
1329.62
1647.79
1759.71
2139.91
1773.27
1558.10
1549.14
3072.25
1522.75
1689.00
1792.07
1147.62
1486.24
1101.58
598.89
843.99
1440.36
1439.22
4172.61
1472.46
1436.34
1181.54
1184.48
1460.79
1496.10
1799.71
2381.71
2920.15
3353.75
4033.13
1449.62
1012.01
646.64
1085.57
1107.96
1299.78
1410.30
1321.98
1046.25
1249.71
2722.33
1321.11
1386.16
1419.44
1515.57
1953.37
1486.55
613.02
892.05
1277.00
1401.05
1231.08
1492.49
1561.80
1440.79
1457.01
1650.17
1758.30
1695.41
1546.28
1653.61
882.51
603.98
881.72
1096.77
1102.07
1444.80
1187.16
1929.76
2669.81
2916.38
2129.74
2403.82
2032.49
1750.86
1451.01
1391.09
1469.91
611.68
455.07
774.22
950.47
1105.71
1176.87
945.60
1695.00
1865.86
1897.66
1482.23
1303.91
1432.30
1708.98
1721.48
1358.61
1003.13
663.51
369.71
977.81
696.61
936.30
1442.37
1883.50
2114.71
1737.05
1839.44
1388.74
1548.42
1549.99
1740.86
1905.59
2020.86
1131.35
1050.88
738.40
605.51
508.48
1194.24
954.61
1569.85
1400.59
1316.65
1284.19
1838.87
1919.26
1570.69
1378.37
1708.44
2231.77
1930.76
1439.26
1163.68
1471.45
1252.05
715.42
1603.95
1436.39
1540.55
1268.20
1306.44
1309.53
1472.54
1742.82
1864.85
1653.70
1015.47
557.08
637.85
630.03
846.30
852.52
1044.19
1444.59
1342.59
1319.75
1455.51
1486.59
1626.09
1444.04
1502.35
1680.46
1806.03
1314.53
1842.12
1634.37
1182.55
704.42
772.28
856.29
1834.84
1912.84
1466.77
1176.42
1127.15
1536.33
1285.53
1493.91
1488.28
1361.85
595.61
781.18
629.19
888.77
1540.29
1538.48
1586.69
1397.13
1853.51
1717.28
1546.01
1359.84
1331.37
1601.92
1778.10
1989.53
1750.60
1853.17
1010.79
926.62
743.68
785.47
1223.56
1272.44
1420.86
1734.95
1388.15
1215.71
2041.78
1582.32
1451.97
1522.45
1475.15
585.01
474.50
755.78
994.83
713.40
754.60
1094.95
1238.79
1396.31
1335.87
1103.91
1222.94
1430.32
1263.33
1530.30
1919.06
1963.84
1806.79
1169.05
985.28
1161.26
1950.18
1893.23
2168.48
2566.38
2214.05
1567.80
993.55
2002.52
1336.48
1374.17
1473.34
1269.38
1193.40
1235.73
1276.56
1437.53
1152.36
1131.55
1911.17
1081.81
1409.75
1425.38
1455.33
1632.03
1572.80
1350.00
1465.20
1536.76
1345.71
2168.79
456.68
915.95
1647.09
2217.77
1371.93
905.94
1442.18
1479.93
1172.72
1199.12
2495.67
1687.94
1989.71
2557.82
3311.67
3229.46
1983.05
926.60
3217.96
3839.78
3695.50
4193.00
3288.07
2651.94
1365.48
1277.71
1121.11
1434.28
1616.50
1528.59
1455.48
1493.91
3332.90
1527.44
2047.09
1674.75
1351.38
1538.96
1418.38
1937.63
2595.49
3325.58
3094.36
4260.89
1517.16
1274.77
1520.29
1259.17
1552.80
840.83
512.95
752.32
594.47
835.98
1756.69
720.68
1397.75
1542.11
1555.66
1667.20
1815.17
1712.88
1612.38
1454.41
1770.81
2897.29
775.04
637.19
696.57
750.03
751.63
928.72
1066.40
1989.04
1686.69
1461.05
1216.74
1326.29
1443.45
1349.02
1371.89
1704.96
1309.38
905.96
917.50
819.59
659.45
577.14
590.75
1005.98
1424.57
1322.84
1161.21
1488.01
1343.64
1383.44
1617.37
1567.29
1564.82
658.79
1294.31
2411.19
2730.64
2196.34
1958.97
2056.67
2912.84
2016.83
1371.58
1337.87
1213.94
1405.83
1556.55
1488.27
1630.64
1348.54
609.84
771.77
857.47
686.57
708.20
1171.39
653.09
1491.68
1490.20
1826.07
1259.82
1293.60
1437.93
1583.35
1816.19
1809.00
1482.72
1096.28
1655.52
2554.28
2778.14
1533.06
791.75
1213.93
1399.77
1460.21
1383.02
1406.84
1762.38
1488.27
1540.48
1708.75
1462.46
894.95
1092.49
810.06
856.04
1135.40
1405.42
746.73
1387.90
1342.25
1330.80
1199.08
1367.10
1691.76
1676.41
1568.95
1601.02
1910.71
1190.87
1110.14
1517.09
1487.34
1440.50
1147.33
653.11
1431.48
1440.77
1627.36
2103.86
1875.38
1421.93
1441.49
1959.50
2080.26
1267.40
681.72
763.41
761.60
675.23
1093.28
973.92
1244.10
1614.22
1222.59
1324.17
1342.40
1421.32
1474.43
1331.58
1413.19
1927.69
1319.01
1387.92
838.80
644.74
728.66
725.42
553.36
1384.50
1427.53
1465.26
1547.50
2004.58
2149.81
1491.35
1424.32
1430.93
1366.78
725.41
1192.41
845.44
650.80
1462.31
583.22
942.83
1388.90
1561.77
1294.57
1101.02
1452.15
1594.79
1603.86
1501.40
1883.54
829.29
1155.71
939.22
642.00
941.87
1184.53
1301.44
1705.96
1960.99
2126.20
2009.43
1255.10
1547.95
1611.74
1752.59
1544.35
1560.97
2097.25
4243.28
4226.06
2916.13
1844.90
850.67
2528.92
4210.91
4106.55
3098.38
1832.11
2020.58
1853.80
1664.74
1487.02
2768.25
1988.52
1185.69
915.20
820.38
774.17
1079.70
1361.56
2197.39
3330.80
2345.35
2510.43
1138.93
1375.94
1514.72
1439.05
1648.44
2011.87
1864.62
963.01
776.42
1263.38
2335.05
865.04
1368.87
1619.15
2344.98
2507.44
1917.78
1577.78
1702.15
1291.38
1488.88
3486.38
1381.94
717.55
714.21
708.76
483.07
528.27
622.54
680.17
1310.47
1682.26
3425.75
1607.70
1536.43
1403.59
1480.80
1759.45
1579.91
1682.93
630.52
1171.34
1530.83
4208.71
744.80
755.26
1063.11
1094.78
1733.53
1432.98
1267.02
1436.03
1468.76
1354.66
3875.23
2355.87
2324.20
2111.75
1632.18
982.91
1208.29
1378.84
1438.77
1448.54
1674.65
1912.85
1318.55
1312.24
1427.80
1465.96
1934.46
2074.20
1749.07
673.01
689.81
747.69
1115.43
1540.95
1046.24
688.03
1389.77
1196.71
1568.68
962.72
1321.87
1398.88
1528.30
1573.90
1515.31
1326.91
748.06
1178.44
2340.84
3191.73
2899.30
1442.81
726.68
1503.52
1549.89
1226.94
1146.82
1642.54
2314.38
1761.44
1596.52
1395.78
1278.39
1319.14
1045.05
1026.57
1509.08
1868.68
1437.22
1794.62
1541.37
1306.36
1465.76
1543.82
1473.54
1530.75
1680.34
1563.01
1884.38
1167.65
957.37
919.74
856.14
579.74
485.35
636.79
1520.19
1250.13
1431.17
1188.78
1274.35
1411.21
1467.22
1360.07
1519.63
1343.90
760.81
494.96
603.03
687.27
729.47
896.50
906.94
1445.47
1502.46
1368.90
1383.05
1325.47
1423.12
1540.22
1514.14
1291.67
1247.50
1200.63
1254.72
1490.22
1145.01
686.19
741.98
1313.39
1800.54
2450.05
2362.51
2453.93
2499.79
2077.20
1909.79
1476.80
1449.52
1792.78
1770.65
1898.50
1241.31
610.32
810.44
785.67
1251.83
1216.81
1322.68
1177.36
1115.57
1422.01
1379.56
1486.50
1528.96
1558.95
1021.99
383.73
862.41
1158.47
1090.14
1274.86
1936.88
3288.22
3474.20
2257.43
1287.38
1182.20
1456.30
1626.95
1675.33
1583.01
1005.57
833.50
582.81
940.91
475.37
702.26
783.84
1257.39
1388.50
1324.99
1263.07
1274.77
1493.23
1601.90
2368.19
1601.03
1530.05
710.13
1139.83
1447.21
1754.00
1632.83
1051.22
749.02
1326.54
2031.28
1494.96
1282.57
1273.68
1619.03
1545.96
1645.73
1794.70
1776.93
1371.58
1065.26
1482.17
591.31
915.12
2024.56
2412.66
2811.92
1898.12
1397.60
1293.70
1899.07
1796.41
2334.38
1378.93
1422.74
1153.26
559.07
1105.10
1864.64
1565.68
1139.67
609.17
1311.01
2419.97
1216.71
1333.09
1341.71
1937.00
1510.61
1908.41
1872.61
1762.15
812.15
687.51
1794.50
642.08
729.50
688.95
641.48
1373.06
1403.10
1477.99
1133.93
1352.39
1254.96
2848.00
1749.22
1813.63
1490.77
1053.82
672.80
605.05
609.46
1239.76
1388.26
1642.37
3241.87
1418.94
1300.00
1310.69
1314.36
1806.58
2306.57
2178.03
1531.69
1035.44
1636.81
4213.45
792.37
764.66
541.20
1014.16
1250.04
1639.31
1724.58
1904.71
1557.38
1450.57
4139.86
1583.34
1807.99
1512.98
965.76
767.63
844.03
770.56
986.67
416.20
625.40
3789.73
1678.67
2411.88
1721.87
1612.55
1548.14
1475.66
1516.65
1419.35
1367.03
871.53
1378.13
689.86
969.78
682.52
552.21
600.86
1442.57
1324.19
1287.20
1449.26
1268.92
1481.19
1433.16
1511.95
1723.28
2538.47
3143.65
2841.66
2473.15
1400.97
559.46
1204.92
1756.27
1700.96
1200.72
1365.08
1082.51
1448.76
1463.70
1427.31
1484.89
1756.57
1337.65
822.58
816.04
1010.25
677.73
961.07
663.82
2189.53
3016.20
2552.97
1426.52
1460.76
1404.67
1453.55
1400.86
1545.25
1613.98
951.75
1036.02
1354.67
1378.98
1318.19
1197.88
1595.22
2655.16
2430.57
1586.90
1147.33
1535.91
1828.75
1482.48
1501.57
1386.06
827.76
601.71
840.20
1272.46
732.53
751.66
790.05
1196.54
1634.00
1669.59
1435.01
1319.59
1395.69
1955.67
2003.97
1763.24
1464.94
674.04
815.29
1325.23
1515.69
1597.43
1577.61
1287.24
1866.84
1402.95
1417.84
1031.71
1382.86
1538.83
1453.12
1436.46
1649.36
1424.09
675.86
792.04
624.68
550.94
820.50
628.93
775.65
1322.02
1392.61
1340.87
1148.39
1463.48
1380.99
1412.27
1682.05
2498.96
2515.99
1616.57
1148.32
1397.99
1993.66
2437.74
1826.35
1744.00
1520.77
1424.98
1302.56
1362.35
1173.23
1388.49
1394.72
1571.85
1683.56
1455.06
1999.72
633.10
896.76
901.74
1444.11
1280.87
1448.37
1444.04
1250.15
1674.12
2324.21
1754.50
1294.45
1523.37
1349.47
1588.19
1137.01
1081.47
1022.28
1182.69
1041.36
777.89
1485.02
1653.32
1420.21
1604.83
1480.84
1707.80
1478.07
1360.01
1426.29
1368.03
1057.94
1117.85
808.07
547.80
939.17
2006.39
2319.76
1895.35
1329.81
1367.31
1279.72
1330.68
1829.93
1436.58
1380.50
1478.55
1702.63
1433.48
1553.41
1852.18
1491.99
1383.99
1398.47
2232.48
2824.25
3305.09
2926.31
1661.78
1176.46
1673.57
2327.21
2437.30
1821.53
1792.12
1830.45
829.65
1027.78
937.34
1351.54
1478.47
1015.95
1377.40
2411.48
2442.60
1519.37
2594.98
1270.07
1442.38
1386.19
1370.61
1722.48
2652.70
2905.08
2936.13
2406.29
1977.26
2719.91
2107.70
2235.66
2342.61
2474.18
1461.84
1510.97
1405.09
1558.13
1688.57
2123.71
4223.11
659.25
937.02
1219.04
1228.15
921.49
735.65
2271.32
2716.84
2855.28
1782.94
4212.19
1331.49
1452.99
1566.31
1780.01
1696.30
1208.46
808.87
593.29
476.35
548.48
3334.35
1111.80
2159.74
2607.75
2787.71
1955.68
1669.05
1493.69
1386.37
1960.07
1984.81
4159.88
714.87
1224.15
1312.11
1255.23
896.42
872.99
1244.30
1357.33
1399.08
1422.85
1832.37
1515.85
1312.30
1457.08
1488.47
1471.66
765.90
853.70
1102.19
1397.43
1466.18
1599.03
1647.94
2728.94
2817.14
2690.94
2226.17
2105.78
1428.04
2611.89
3512.08
2645.83
2215.86
1437.36
716.32
733.22
320.09
736.32
513.09
746.81
1399.46
1261.56
1389.56
1171.74
1475.22
1611.97
1783.84
2085.12
2435.85
2702.59
1916.28
1536.57
1305.85
1076.90
707.29
718.25
1215.63
1451.69
1364.80
1213.50
896.07
1326.27
1454.77
1379.43
1885.75
1789.92
1038.63
1418.55
794.65
868.94
712.80
718.16
891.42
1412.67
1225.86
1423.76
1322.14
1411.67
1827.70
2489.31
2761.00
2444.18
1678.86
670.21
582.58
729.17
525.49
1025.87
935.06
766.65
1634.42
1471.37
1752.61
1569.95
1520.66
1487.54
1417.10
1445.83
1411.71
1068.60
1372.24
1553.75
1572.90
1064.62
465.55
863.33
1258.97
1337.82
1404.24
1245.85
1430.68
1389.77
1619.52
1774.34
1616.56
1823.21
889.80
788.75
690.64
764.87
823.58
1409.39
1067.86
1858.50
1683.15
1626.31
1130.59
1388.79
1622.11
1718.78
1470.68
1411.90
1549.25
1013.55
1171.81
896.59
678.82
802.92
762.36
710.23
1434.95
1400.53
1503.21
1899.32
1388.69
1404.87
1523.49
1763.87
1556.21
1059.18
1143.91
1395.91
1227.40
1561.94
1978.31
1490.24
1531.39
1612.49
1558.95
1222.76
1270.45
1353.80
1392.69
1369.82
1470.54
2013.66
756.51
659.74
681.03
1000.78
1011.49
962.11
825.64
1597.95
1601.27
1800.59
1958.25
1215.20
1413.27
1427.73
1641.57
1520.03
1580.50
1053.36
958.30
1129.81
970.44
1391.87
576.02
733.58
1607.97
1886.22
1874.16
1696.91
1826.80
1905.55
1727.33
1549.65
2160.96
1080.44
1021.31
955.62
933.75
939.63
799.51
700.75
1167.67
1316.57
1460.74
2011.80
1395.52
1396.08
1964.98
2280.67
1958.42
1341.18
886.55
597.73
820.15
774.73
2238.19
2141.70
1897.34
2197.95
1973.20
1734.61
1282.08
1421.07
1948.42
1626.75
1450.38
2850.07
1675.64
557.43
457.11
999.24
1390.91
953.52
575.53
1352.43
1302.40
1439.63
3231.02
1502.15
1632.11
1578.36
1487.81
1819.06
1541.94
1006.20
1085.15
1430.91
2266.52
3400.09
2224.17
1551.73
1718.60
1437.60
1433.74
1737.19
1684.31
1805.74
1875.46
1923.70
4209.76
1606.06
838.74
696.79
1154.69
1202.06
833.31
674.98
632.81
2048.37
1897.96
4248.33
1340.34
1485.03
1466.77
1605.59
1679.47
1683.80
1705.38
1096.10
1044.57
709.31
1177.66
927.67
826.35
998.21
1706.57
2034.79
1920.79
1811.83
1772.46
1547.92
1638.06
1425.05
1613.95
944.24
534.60
765.08
741.60
665.12
770.55
667.09
1316.75
1557.90
1758.36
1478.98
1458.73
1487.24
1375.47
1666.69
1683.57
1725.05
1064.86
1236.42
735.07
620.91
606.30
787.18
1120.93
2193.32
2477.46
2971.80
3124.52
3264.00
3108.35
2048.39
1633.10
1851.02
3353.73
4212.58
3446.27
1918.63
625.73
617.30
908.58
1379.98
1960.89
1950.28
1762.61
1384.18
1436.94
1531.28
1795.81
1678.82
1804.67
1444.99
1250.20
904.28
1167.61
1154.70
934.79
876.37
1330.50
1856.75
1592.96
1480.45
1577.03
1610.38
1716.92
1763.68
1906.33
1887.17
1025.73
929.34
775.33
1113.54
1739.06
1658.48
969.37
1764.33
2109.07
1961.06
1256.17
1529.82
1525.50
1538.68
1511.11
1607.92
1797.36
2128.53
2515.22
2021.06
988.06
802.56
1488.69
932.84
1701.17
1838.09
1813.95
1324.74
1472.36
1448.94
1599.27
1713.60
1831.31
1145.86
1056.69
846.30
518.45
610.46
747.67
678.91
1557.30
1587.95
3844.83
2160.25
2236.29
1420.60
1626.04
1946.90
1653.62
1544.78
814.05
763.97
796.22
2978.06
834.00
839.10
690.43
1602.43
1467.96
1459.61
1200.86
1403.22
1515.44
1676.25
1765.41
2004.03
1725.39
1359.42
2059.62
1833.11
1698.67
1052.00
586.84
1047.25
1549.37
1547.59
1484.26
1302.17
1508.72
1443.98
1514.89
1526.65
1507.59
1086.86
770.98
1221.95
954.57
1330.02
1098.64
898.53
1379.26
1728.56
1455.53
1424.86
1654.51
1919.55
1903.04
1804.85
1920.55
1554.06
680.33
650.21
735.62
1002.72
604.80
755.99
831.51
1501.56
1718.69
2672.20
1382.53
1407.51
1528.93
1511.84
1523.47
1692.91
1580.94
1210.89
1602.67
1286.51
1568.81
1070.42
871.14
1037.98
1580.76
1558.49
1828.49
1816.31
1901.05
1802.93
1519.18
2531.20
1683.66
823.03
519.62
579.15
754.88
722.79
524.72
985.80
1411.77
1387.66
1453.60
1463.74
1512.41
1502.51
1430.37
1517.90
1636.06
1704.04
1460.44
1413.82
1001.32
830.16
753.89
868.04
701.81
1421.72
1438.53
1486.45
1107.60
1644.50
1802.54
1940.08
1566.62
2161.39
1627.31
1131.64
1362.96
1491.42
1885.56
1988.01
1390.71
1312.27
1746.22
2297.24
2321.17
1166.99
1398.73
1553.33
1484.95
1599.88
1663.25
1430.86
1033.47
552.07
700.58
1450.55
1144.32
1246.21
1948.76
1950.66
2174.30
1860.20
1637.59
1719.75
1605.58
1697.76
2086.04
1832.05
837.83
619.94
822.97
796.95
720.93
1037.47
639.38
1605.90
1519.98
2200.33
1291.02
1291.29
1398.78
1469.04
1714.24
1877.09
1803.19
1329.56
654.93
577.76
1697.70
863.52
765.53
1115.57
1642.71
1549.04
1444.75
1349.63
1807.89
1465.97
1586.74
2636.83
2008.13
1116.10
927.03
640.79
679.05
636.54
936.15
774.96
1535.14
1326.20
1661.38
1478.99
1232.03
1627.58
1344.08
1501.96
1405.66
1647.12
1020.23
699.32
1261.45
1353.27
1109.65
686.68
902.37
2425.64
3536.86
3022.58
2201.77
1957.76
1841.50
2038.07
1612.60
1685.22
1527.02
859.16
502.30
829.86
1031.86
1028.50
753.73
1099.55
1486.56
1883.76
2087.40
1513.38
1576.89
1588.11
1612.84
1891.01
1734.08
1081.20
555.87
567.32
815.44
1917.59
641.33
841.63
1658.20
1852.85
1616.66
1485.76
1216.85
1563.44
1525.17
1613.70
1833.41
2185.25
1699.59
1686.89
944.58
580.15
1895.49
2634.66
2727.48
2807.55
2171.74
1702.93
1401.02
1541.78
1998.95
2499.20
2538.62
2229.85
2197.98
1240.66
806.27
954.10
665.29
1057.41
1276.28
1558.43
2217.87
2204.72
1833.40
1379.68
1445.74
1547.90
1460.00
2063.53
1918.12
1389.83
911.67
544.43
1678.05
2725.55
2351.45
1574.00
1787.46
1318.02
1319.45
1425.84
1677.66
1633.00
1890.21
1522.07
1662.34
2329.66
2448.58
1962.31
1708.71
843.20
921.23
1042.15
1237.40
1840.33
1453.13
1455.17
1091.41
1400.20
1587.43
1447.78
1678.94
1775.99
1513.45
974.12
759.43
1257.58
1183.83
750.72
740.19
1295.82
1493.79
1600.18
1537.39
1468.11
1624.36
2002.73
1817.68
1988.28
2591.71
2505.76
2021.01
1441.36
535.45
802.84
829.93
647.48
1166.78
1620.91
1579.12
1519.84
1156.72
1503.86
1499.75
1668.94
1605.35
1624.08
736.17
872.00
1474.32
1828.83
1582.90
1452.87
1247.51
1516.73
1602.32
1637.99
1529.02
1346.84
1425.26
1794.29
1604.59
1587.65
1707.00
1245.92
972.25
1024.78
1047.65
1193.89
2099.28
2332.81
1554.70
1633.59
1395.53
1220.80
1715.87
1570.81
1857.05
2222.46
1552.75
1041.61
663.14
674.74
666.07
828.77
684.12
1191.10
1559.03
1561.88
2025.54
1505.36
1638.12
1761.89
1875.06
1753.64
1783.23
1774.93
762.59
725.08
954.57
1575.41
1038.83
972.05
1056.47
2188.54
1980.69
1447.55
1384.06
1653.29
1657.62
1519.10
1863.10
2031.52
1893.78
1620.72
1626.43
1383.60
1120.06
1028.55
852.59
1662.00
1630.83
2129.13
1725.06
1587.71
1473.53
1577.85
2517.52
3344.85
3013.22
1962.60
705.98
701.95
1833.11
1624.09
2038.17
1762.15
1856.77
1601.45
1780.91
1548.50
1828.37
1788.83
1640.70
2502.15
1555.59
1634.49
595.86
1182.14
1484.12
1401.81
686.66
815.62
897.01
1451.45
2963.00
1449.78
1454.12
1446.41
1458.23
1578.68
1612.25
1558.67
1472.94
759.76
539.81
2426.19
726.03
875.88
985.80
1326.65
1844.13
1443.49
1462.06
1292.57
1576.19
1493.54
3542.94
1619.05
1659.52
880.83
942.42
1156.09
811.00
614.76
1176.62
1286.47
1771.52
4199.37
1485.80
1485.73
1392.03
1654.60
1715.22
1973.29
2290.69
2105.98
1860.16
1627.50
2916.39
868.32
1344.54
994.29
708.15
1779.34
2200.57
2102.59
1216.65
1367.78
1506.56
1913.82
2589.32
3228.11
2804.05
1896.17
1111.99
1002.65
2045.42
3287.98
3247.15
2759.84
2772.04
1983.37
1533.27
1384.20
1460.01
1412.93
1412.75
1330.51
1430.21
875.11
759.37
729.21
757.99
1180.14
854.36
745.33
1379.15
1466.72
1909.30
2108.22
2441.82
2042.69
1667.17
1601.98
1695.31
1535.35
822.35
711.69
973.67
1119.74
1070.52
775.14
716.33
1361.04
1356.00
1514.39
1516.07
1335.24
1646.07
1591.78
1478.41
1573.27
1490.46
616.26
649.48
964.48
1161.59
861.13
1025.74
1738.42
3063.81
2647.66
1750.92
1292.26
1465.31
1618.83
1580.96
1496.51
1683.28
1287.88
1053.40
701.91
656.57
1487.61
2354.13
1871.06
2003.29
1550.78
1403.06
1337.43
1580.46
2085.90
2720.11
3768.04
4282.24
4228.33
3455.71
1138.09
1635.47
2815.28
2820.56
3047.53
3019.86
1991.10
1530.26
1513.28
1411.19
1760.93
1872.65
1676.87
1723.29
1388.08
1483.26
993.98
1481.96
1630.00
1634.51
1725.27
1383.97
837.69
1714.18
1672.32
2131.89
1877.86
1776.27
1357.62
1460.49
1505.93
1632.71
1303.63
1331.07
1038.01
1001.01
742.67
608.31
643.76
1471.66
2131.91
2329.95
1842.68
1850.80
1657.31
1840.18
1778.25
1626.95
1561.02
797.86
670.43
869.25
1055.94
1063.48
569.35
504.14
2018.73
1433.11
1209.46
1279.11
1445.47
1416.31
1347.89
1544.24
1391.18
1517.65
1246.53
1502.33
910.05
524.98
748.84
843.36
823.30
1577.74
1434.97
1383.21
1023.01
1405.29
1907.16
1441.43
1493.39
1684.55
940.17
666.89
648.84
827.76
1027.51
1071.05
1321.53
2845.73
1511.31
1512.56
1425.71
1312.26
1453.29
1371.72
1460.11
1532.82
1419.81
1002.24
2965.83
1546.91
1728.03
1358.26
1132.66
594.98
1366.70
1399.93
1721.91
1179.74
1313.56
4241.50
1452.64
1416.21
1593.88
1663.12
1040.81
572.77
605.79
680.00
827.99
1145.97
3032.55
2012.83
1904.45
1563.52
1460.25
1610.07
1346.56
1423.08
1336.47
1586.44
1152.23
4008.06
1621.19
685.15
1011.61
1351.28
1183.54
1293.00
1464.12
1370.09
1090.46
1342.04
1409.57
1507.42
1359.16
1443.59
1281.36
606.78
742.33
776.16
579.20
950.13
425.30
614.38
1214.35
1235.88
1318.88
1159.07
1111.09
1344.00
1841.63
2056.66
2270.31
1785.28
928.82
638.90
824.78
845.98
734.67
1008.20
1324.44
1460.05
1810.74
1624.78
1514.71
1907.60
2022.93
1466.82
1600.97
1479.68
784.29
560.29
650.53
857.03
801.98
754.54
1164.31
1438.53
1521.44
1660.51
1346.39
1477.28
1451.05
1755.12
1575.72
1631.76
1632.38
1136.54
1086.73
1254.53
1163.65
1154.62
962.14
1385.39
1827.58
2004.68
2004.30
1666.96
2012.40
1571.81
1623.75
1601.62
1650.30
1691.58
663.02
838.77
815.60
1024.63
604.31
823.75
1578.57
1881.47
1518.06
1635.16
1378.60
1345.93
1430.57
1611.15
1360.03
1576.32
850.32
544.10
815.62
1193.99
1458.03
1480.81
1653.36
2477.01
2810.65
3720.00
3345.36
2524.52
2142.98
1972.27
1759.78
2654.92
2658.43
2351.63
1639.97
972.94
573.25
791.17
547.49
616.78
1757.29
1727.41
1616.80
1381.47
1390.40
1541.43
1416.83
1504.34
1720.68
1695.82
1087.57
1439.86
1068.08
857.18
829.97
948.55
1115.37
1618.29
1609.63
1790.76
1953.40
3004.34
3857.55
3497.80
2551.44
1672.26
1240.04
2224.26
2242.18
1878.08
1172.31
625.95
708.58
2320.55
1209.52
1557.49
1763.83
1432.45
1297.66
1475.23
1421.29
1432.72
1371.97
1068.21
2497.51
1677.70
1651.41
955.80
640.16
1075.09
1891.36
2028.10
1945.33
2116.23
2219.16
2779.12
1362.62
1566.96
1564.87
1398.99
675.93
1192.31
839.21
745.23
859.23
781.84
2867.87
1452.07
1339.45
1421.17
1107.23
1430.77
1423.97
1662.78
1543.48
1519.04
1132.34
2963.70
964.72
709.70
1271.15
2092.01
2257.09
2736.46
1958.28
1448.05
1181.80
1316.32
4224.83
1556.66
1420.29
1505.16
1703.35
1204.19
1328.75
1383.41
1202.76
659.28
910.30
4075.62
1322.79
2160.81
3336.10
3125.64
1373.36
2420.91
3459.83
4136.01
4129.73
3083.71
4199.27
1338.79
690.96
619.25
1109.09
752.48
657.88
1458.49
1598.89
1435.87
1490.50
1831.06
2074.18
1656.99
1440.24
1486.50
729.06
851.58
675.00
730.36
933.28
574.19
524.43
1308.38
1402.90
1371.91
1207.79
1369.79
1450.21
1946.47
1870.60
1853.19
1892.06
1118.01
649.93
644.10
578.75
682.46
1122.51
1295.61
2218.00
2177.08
1785.83
1317.70
1496.13
1678.21
1516.92
1466.29
1517.97
1553.14
1115.86
1125.94
1284.80
842.91
436.82
1150.75
1611.56
1985.18
2231.96
1459.17
1274.42
1384.55
1512.97
1704.85
1580.38
1478.52
980.88
1059.84
904.58
1338.92
1193.14
938.24
961.96
1445.92
1355.85
1985.49
1709.88
1372.47
1805.50
1583.42
1592.89
1588.64
1672.21
1179.17
1399.12
896.22
881.68
712.27
900.21
830.20
1412.24
1618.95
1428.96
1200.95
1351.42
1620.75
1356.81
1425.92
1559.72
1359.76
1358.17
826.03
881.50
761.75
952.16
993.51
1066.14
1803.02
1811.44
1850.44
1575.77
3987.43
1561.12
1538.41
1524.57
1289.03
618.41
620.33
776.90
941.20
584.99
816.63
556.75
1409.92
1435.36
1266.12
1395.10
1385.52
1544.76
1488.68
1389.23
1139.93
1698.43
1664.98
2579.96
1695.29
1035.71
724.63
898.23
1250.14
1301.78
1482.69
1342.77
1168.05
1216.64
2277.16
2198.49
3157.43
3995.68
4059.10
2479.99
1405.09
837.83
1423.96
2241.57
2414.34
3732.97
2489.34
1429.02
1350.04
1213.12
1187.80
1449.64
1387.55
1386.94
1652.40
1113.11
2037.94
1297.14
1250.37
1227.48
1329.22
1386.26
1733.35
1673.34
1331.36
1054.64
1011.16
2667.60
1358.47
1407.27
1343.67
1361.23
906.08
734.96
543.06
787.99
1057.18
748.55
2281.82
1121.33
1308.15
1215.71
1128.76
1410.00
1167.14
1537.31
1700.07
1820.46
1559.44
3213.99
1216.89
1387.41
1287.36
1502.17
1078.22
1072.32
1419.74
1210.61
1162.84
1023.58
4135.23
1667.46
1900.05
2111.40
1529.20
664.80
1430.27
1957.26
1840.88
739.53
834.39
3751.52
1339.91
1198.02
1110.18
1209.93
1067.60
1480.97
1420.51
1516.88
1542.44
1470.05
2159.21
1072.85
1402.84
957.58
859.07
755.48
895.65
1924.50
1975.54
2597.56
2307.47
2559.80
2515.35
2032.40
1566.68
1478.02
1397.95
870.85
606.56
277.20
647.89
705.18
1209.95
1234.86
2496.20
4213.03
3587.71
1844.94
1134.80
1802.72
1778.47
1944.94
2300.23
1848.07
1353.47
987.06
981.91
561.65
558.67
713.00
1649.57
1794.13
1920.90
1911.57
1370.74
1706.87
1777.92
2115.33
1821.61
1554.79
487.87
567.74
680.17
626.34
600.67
893.66
685.47
1317.98
1342.54
1211.00
1095.34
1156.20
1278.59
1512.84
1153.88
1369.25
1086.87
885.30
837.08
498.52
532.24
762.48
817.92
1093.78
2081.12
2081.32
1787.74
1632.69
1413.32
1663.41
1487.67
1565.04
1313.84
951.56
1212.78
1880.76
1991.00
1252.77
560.66
1058.12
1834.16
2267.21
2353.33
1543.00
1477.10
1477.66
1474.03
1332.99
1406.60
1871.72
1589.66
1854.73
1965.27
1732.63
1779.87
1568.64
1317.37
2205.69
2115.94
2043.07
1394.80
1363.35
1432.39
1802.88
2250.76
2131.70
1558.24
771.09
1752.33
2008.25
1383.98
625.48
583.54
1226.47
1460.20
1625.58
1528.29
1506.55
1575.40
1682.15
1290.89
1465.33
1257.54
670.58
653.01
672.71
817.18
939.61
1160.59
1518.72
1860.98
1683.30
1469.90
1192.76
1229.90
1618.58
1638.97
1994.15
2213.03
1937.25
915.58
556.31
1100.53
1093.17
491.97
525.00
1211.36
1466.35
1344.54
1440.28
1107.60
1443.01
1440.52
1453.41
1342.70
1473.47
1248.02
1410.81
715.85
622.56
487.69
696.45
727.04
900.60
1761.20
2034.52
1898.17
2243.26
2893.82
2758.96
1817.47
1519.47
1529.52
1130.57
1363.61
1187.67
1122.64
691.15
896.66
1059.93
1417.75
1188.29
1452.52
1471.03
1536.27
2098.88
2003.02
1827.82
1570.69
1430.85
1525.75
1280.95
1016.67
734.26
439.41
724.33
1021.24
1430.58
1324.59
1498.59
1247.97
2123.45
1970.39
2362.92
1911.57
1514.90
1458.97
545.58
708.67
1420.31
1659.79
993.97
2183.36
704.92
1251.19
1357.04
1405.07
1249.05
1150.33
1399.33
1472.77
1443.36
1475.39
3280.21
494.09
520.72
672.30
606.47
831.12
847.59
1390.90
1678.54
1718.83
1257.62
1139.23
1984.39
1449.70
1680.35
1671.35
2040.92
1628.75
1072.71
664.76
682.07
977.29
890.87
1524.03
1570.95
1191.36
1249.78
1136.17
1309.61
1573.19
1614.29
1524.96
1827.98
1455.94
2529.74
1873.46
1910.32
1018.50
847.95
1559.52
1460.44
1404.00
1727.89
2015.89
1855.19
3034.51
1554.59
1418.74
1406.57
1348.54
1095.71
923.58
923.04
399.88
686.84
509.42
3308.34
1478.04
1314.62
1276.44
1289.01
1296.20
1420.41
1437.40
1459.74
1296.71
1369.62
3940.98
1059.55
1418.27
2191.77
1805.08
1644.30
1280.43
1993.57
1650.21
1709.15
900.67
2672.90
1411.52
1868.96
1666.55
1719.09
1305.31
696.82
1155.41
2046.13
2205.24
2071.23
2786.44
663.49
1229.68
1372.86
1396.97
1087.34
1241.33
1408.89
1292.55
1253.47
1314.15
810.65
938.53
1230.93
1448.49
1781.95
1851.53
1808.20
1772.33
1830.38
1783.66
1709.00
1446.76
1631.08
1392.59
1288.51
1292.01
1507.33
620.15
650.42
614.68
719.53
640.79
657.47
889.57
1286.08
1398.57
1472.96
1291.64
1408.44
1468.17
1417.74
1265.78
1613.74
1458.10
1011.42
810.32
1336.88
1143.69
684.52
696.42
1119.13
1449.41
1833.26
1756.96
1295.11
1942.50
1608.82
1652.51
1710.67
1623.19
805.49
498.38
511.71
759.37
706.36
647.73
647.88
1306.71
1101.79
1281.14
1609.21
1475.10
1704.33
1427.04
1257.40
1233.86
1391.63
806.29
600.25
640.94
1037.02
1210.08
2202.93
3071.26
3103.63
2689.49
2455.99
2264.68
2443.90
1641.73
1373.67
1817.15
1876.55
2328.57
2130.46
784.67
825.82
705.52
878.01
1152.55
1071.22
1486.52
1119.37
1211.45
1176.89
1252.96
1251.55
1686.20
1393.39
1285.47
2062.80
2063.41
1816.66
1045.11
531.59
1847.99
2201.53
1274.72
1602.39
1867.68
2450.37
3513.54
4153.31
4230.93
3746.23
2054.38
1501.06
2293.92
3892.78
4168.83
3824.93
2716.38
2366.81
684.01
1357.06
1278.12
1417.57
1177.02
1417.86
1426.69
1933.70
2016.47
2445.78
3331.55
2697.76
1785.03
1292.40
1003.19
865.34
810.45
937.60
1100.39
1417.64
1164.00
2694.82
1362.00
1470.82
1368.71
1628.18
1496.83
1079.90
1023.63
894.73
1295.12
1291.15
2509.60
670.84
1236.29
1282.99
1288.27
1319.49
1136.47
1415.88
1325.70
1374.07
1370.79
3603.72
1062.77
1233.58
1143.61
1210.66
1215.94
1238.72
1282.82
2270.76
2150.91
1627.32
3236.53
1542.56
1424.10
1448.39
1228.87
1556.00
1365.00
1005.66
790.28
418.63
727.26
3565.57
1475.14
1615.69
1645.30
1726.63
1589.87
1419.88
1284.33
1458.36
1429.54
1433.33
2554.97
1185.90
1018.39
1011.69
1033.89
1221.02
975.23
739.66
1060.04
1185.72
1300.13
1106.66
1187.40
1494.37
1242.77
1474.88
1492.44
1557.93
936.14
779.94
689.31
431.24
469.37
725.50
691.69
1421.58
1431.86
1245.44
1128.40
1358.98
1448.62
1333.02
1326.21
1404.15
1257.72
805.54
825.81
1273.42
1844.34
2221.52
1910.32
1377.19
1500.47
1588.73
1196.32
1166.08
1376.68
1572.17
1521.69
1471.93
1500.64
845.04
878.19
821.34
667.18
924.81
1085.35
746.17
1433.31
1383.05
1041.76
1133.96
1236.03
1812.77
1661.64
1985.09
1834.75
1744.72
927.86
447.13
1229.43
1495.78
1199.29
869.97
477.86
1529.45
1561.43
1945.53
1814.87
2058.01
1663.61
1526.63
1613.25
2050.75
1663.16
441.30
1137.65
770.03
716.49
1015.51
732.27
1354.09
1407.47
1418.05
1272.88
1249.39
1371.15
1701.72
1445.10
1219.32
1528.45
1081.98
1021.24
781.01
716.30
733.91
836.81
675.23
1499.26
1773.40
1619.75
3186.37
1445.96
1713.70
1817.21
2043.05
2355.84
2510.95
1940.98
1316.39
603.32
909.19
3998.80
1511.32
1482.39
1845.79
1725.62
1564.46
1203.35
1348.67
1269.42
1378.45
1345.28
4243.49
1244.22
821.82
873.37
1085.62
1056.16
667.45
1255.71
1583.31
1783.57
1679.05
2644.38
1467.38
1735.71
1735.50
1406.44
1769.44
1859.24
1197.63
804.71
529.33
745.73
701.09
726.54
1053.42
1392.38
1451.64
1704.41
1898.14
2027.13
1819.63
1490.48
1671.08
2077.35
1649.04
754.72
801.57
739.76
2076.35
2943.20
2981.14
2432.55
1373.89
1708.85
2698.44
2757.25
2598.02
2659.27
2517.62
2040.10
1771.52
1198.13
730.49
1462.95
1922.22
902.35
572.31
443.29
653.12
1107.32
1395.82
1317.41
1103.92
1309.18
1492.02
1453.92
1924.63
2095.31
1501.65
1069.67
606.81
990.62
2124.32
1944.87
1247.95
1089.00
2022.92
1965.39
1697.43
1477.79
1654.87
1606.26
1562.39
1506.40
1383.62
527.03
601.95
1126.95
1305.64
1421.66
791.09
543.19
1402.85
1311.01
1520.41
1281.69
1460.95
1403.16
1772.02
1803.23
1752.08
1383.65
1167.71
1140.90
1335.70
1024.84
726.44
951.69
982.02
1299.53
1456.23
1430.24
1119.55
1358.19
2009.75
1613.81
1688.33
1664.60
1329.49
984.70
682.90
628.19
1924.73
1364.34
806.69
1270.32
1365.58
1224.72
1266.20
1262.11
1508.19
1260.41
1433.49
2013.52
1433.24
837.31
909.47
1017.89
1051.26
663.78
568.99
701.74
1345.34
1322.11
2506.45
1323.52
1557.82
1863.93
1684.38
1494.42
1664.99
1745.81
1541.51
1150.42
706.49
555.68
882.42
749.43
818.97
1262.16
1483.32
1311.02
1143.80
1244.22
1394.66
1356.66
1414.90
1437.45
1526.00
1501.28
1492.63
937.15
887.68
934.44
1193.00
1894.37
1637.02
1342.94
1360.14
1207.42
1221.44
1281.94
1401.19
1391.14
1472.84
909.50
1104.74
753.50
637.22
880.02
609.08
698.32
1266.28
1398.64
1441.09
1293.42
1246.10
1440.20
1366.91
1381.60
3188.11
1405.74
1143.04
923.93
1101.90
1834.34
3049.30
3625.78
3368.94
2851.60
1537.31
4127.59
1234.26
1669.11
1747.77
1562.14
1487.13
1753.20
1427.83
680.96
1182.25
2346.38
4214.10
873.54
565.91
1358.07
1234.38
1192.34
1163.16
1143.97
1553.79
1870.43
1814.12
2587.16
1503.23
954.65
528.54
613.00
1344.64
1377.83
667.21
773.62
1218.06
1374.74
1541.89
947.49
1320.24
1551.01
1607.95
1735.52
1451.32
1159.31
580.84
427.34
635.79
794.74
934.21
788.38
863.44
1169.30
1222.29
1195.33
1084.05
1413.41
1399.40
1298.85
1287.07
2127.69
882.53
1059.58
1123.97
718.49
851.98
593.71
648.71
1551.25
2320.31
2376.62
2192.31
2007.09
2036.43
1893.52
2015.95
1670.49
1666.16
667.99
1025.10
1845.52
2068.13
2413.80
2599.78
1815.74
1384.96
1253.76
1659.51
1618.40
1753.79
2055.61
1466.13
1372.48
1464.47
1205.69
528.38
473.52
556.22
558.37
483.76
769.73
1702.06
2637.95
2009.20
1511.67
1101.93
1275.95
1613.72
1751.61
1722.83
1751.79
834.75
895.89
1039.22
892.97
749.26
741.17
859.62
1608.78
1861.93
2130.92
1367.18
1380.04
2190.98
2392.17
1907.50
1717.83
3665.57
1719.29
950.62
710.16
1082.95
1159.75
1151.88
959.52
1441.12
1633.52
1719.17
3819.88
1504.93
1551.11
1588.74
1584.48
2235.39
1674.04
1179.62
957.68
869.24
428.10
1350.34
805.96
1427.78
1484.24
1480.27
1322.73
1434.76
1236.15
1360.10
1297.64
1566.87
1226.01
870.98
1245.30
1230.53
1127.91
946.31
1255.63
946.23
1583.14
1735.09
1982.68
1163.60
1101.35
1297.09
1367.21
1449.10
1495.74
2365.18
2435.02
2257.65
1453.12
1070.72
1015.89
1067.14
658.03
1422.30
2071.19
2220.55
1407.69
1753.46
1489.11
1531.24
1507.22
1597.38
1207.61
853.56
1387.09
1465.98
1115.70
1254.60
1319.56
1190.16
1472.05
1635.83
2208.35
2872.79
2726.71
2457.59
1751.63
1758.61
2003.52
2028.86
1722.23
723.88
632.28
740.29
708.13
528.77
1455.22
1357.90
1398.04
1548.59
1656.66
1979.13
2179.19
1417.80
1435.50
2377.26
2307.99
1624.81
797.89
476.06
610.20
894.57
1157.59
2027.10
1903.83
2248.63
1737.33
1415.35
1492.13
1456.92
1507.20
1741.43
1295.17
552.23
714.73
615.40
476.48
734.78
622.44
780.44
1096.35
1333.84
1262.98
1397.66
1326.41
1364.85
1305.40
1526.51
2279.73
1643.37
2036.49
2457.32
2615.04
2289.46
1234.77
675.75
1195.73
1452.35
1275.15
2397.57
1339.81
1380.56
1321.60
1283.97
1440.33
1392.93
735.40
735.30
861.03
783.08
2088.89
751.81
1024.51
1284.38
1481.22
1398.63
1236.85
1385.26
1187.65
1223.85
1244.89
3428.80
1015.44
506.53
637.05
922.43
1075.41
1135.13
1111.92
1390.01
2082.52
1762.22
3709.77
1250.52
1365.32
1686.13
1444.63
1483.87
1337.90
744.83
462.52
787.61
611.15
1333.51
1850.99
2481.22
2722.55
2179.99
1333.14
2685.65
4201.04
4052.70
2225.81
1338.29
1572.12
1704.89
1127.10
689.48
785.10
1433.21
1470.21
630.07
888.57
1949.17
1812.38
2207.08
1827.26
1557.76
1394.99
1425.51
1313.61
1368.10
1353.61
980.83
617.79
489.46
846.60
725.31
589.38
1402.67
1775.40
1298.83
1987.84
1925.63
1617.75
1744.29
2026.89
2023.29
2060.37
1502.89
1940.53
1766.88
982.40
539.71
1401.18
1758.96
2371.99
2652.55
2484.98
2214.65
1227.62
1137.02
1359.92
1346.77
1262.27
1517.29
532.19
818.87
404.41
507.59
2023.70
565.21
488.71
1439.04
1193.94
1400.05
1082.03
1219.51
1369.17
1461.22
1486.33
1479.93
1318.25
726.77
858.71
1626.25
1918.21
1861.48
1380.43
981.30
1455.96
1384.58
1104.97
1269.15
1376.47
1500.57
1452.84
1509.91
1331.28
894.50
806.04
702.46
488.14
741.03
878.89
1330.71
1478.21
1828.50
1282.04
1116.24
1124.42
1241.20
1365.57
1606.31
1496.72
2210.98
726.51
961.35
728.30
1004.47
915.66
1283.47
1156.13
1727.68
2190.51
1722.18
3322.11
1471.57
1891.60
1718.15
2233.52
2680.82
2258.04
1663.74
1321.88
611.93
1318.88
4196.70
2730.56
2887.82
2935.39
1901.36
1522.13
1331.43
1360.77
1451.10
1697.83
1514.69
2175.88
899.49
823.70
964.93
410.18
964.55
1279.30
1729.79
1742.18
1895.14
2306.59
1643.92
1417.97
1501.33
1521.92
1394.87
1433.23
1553.11
724.88
766.55
509.96
626.75
583.76
1032.91
582.59
1472.07
1211.40
1296.04
1296.91
1338.25
1342.61
1351.77
1194.40
1500.98
1428.54
504.92
507.37
786.05
1911.63
2261.64
1621.53
1447.02
1965.33
1991.59
1712.92
2012.69
1815.27
1692.96
1771.70
1715.20
1217.37
942.59
646.87
514.17
627.49
600.18
2159.82
765.94
1604.17
1793.06
1410.98
1187.20
1051.52
1410.75
1479.37
1478.63
1422.51
1586.44
1156.52
1075.28
934.03
844.89
924.54
1414.06
1387.55
1798.40
1787.11
1513.28
1105.33
1489.88
1601.31
1699.68
1550.66
1759.31
1623.61
657.66
707.20
937.13
555.50
589.05
774.13
741.73
1223.41
1315.44
1184.05
1494.26
2377.33
2036.07
1471.64
1326.54
1678.34
2081.09
1059.22
895.31
641.05
879.73
995.11
1543.80
2341.68
2872.66
3315.93
2860.83
2305.24
2055.97
1726.96
1554.49
1230.26
1446.19
646.51
707.42
382.34
750.56
975.19
959.51
807.42
1360.73
1359.74
1284.84
1168.51
1392.62
1281.88
1352.17
1314.09
1262.03
982.04
1589.35
785.02
682.30
923.61
1376.99
1485.91
1751.77
2259.40
2192.50
1588.21
1349.01
1856.68
1487.05
1452.28
1465.92
1596.43
1643.43
1935.39
1951.47
1084.16
741.18
2299.32
3747.06
2803.90
2268.64
2081.14
1576.09
1381.61
1281.58
1453.91
1306.48
1234.92
1549.19
1904.65
1726.89
1800.69
2401.77
2382.04
1618.04
580.83
1330.06
1265.91
1236.13
987.23
2102.75
1390.09
1483.49
1216.37
1823.50
1407.94
648.53
712.27
490.34
656.71
583.53
2090.77
1368.82
1079.03
1435.69
1215.11
1128.85
1355.31
1366.48
1311.37
1825.05
1899.68
2794.87
482.61
1064.08
1260.50
733.47
652.51
925.84
1665.36
1597.09
1617.18
1530.56
3369.87
1750.16
2098.95
2104.88
1826.95
1595.67
564.57
937.13
1279.16
987.68
456.74
2861.47
1091.66
1440.68
1343.71
1322.54
1151.54
1453.18
1463.17
1623.44
1469.25
1368.72
3614.07
567.18
749.96
852.56
1283.58
1517.47
1303.76
1120.30
1601.53
1632.60
1637.14
1400.06
1298.56
1386.30
1481.10
1488.06
1417.65
905.85
877.67
1204.85
1042.90
1189.35
890.98
1171.24
1336.52
1166.52
1366.47
1518.72
1672.95
1579.73
1496.37
1403.05
1326.46
1384.18
696.19
959.74
883.28
1174.41
1317.06
1444.81
1202.40
1919.48
1545.19
1439.28
1071.06
1331.64
1693.26
1383.89
1551.02
1419.52
1295.12
719.26
996.31
1374.14
1217.76
748.68
671.78
1113.23
1890.68
1812.72
1821.49
1607.19
1628.43
1458.98
1551.29
1778.65
2004.42
1539.94
1233.72
1545.88
1798.16
1926.74
1614.34
1676.85
1929.72
1522.17
1393.20
1228.54
1228.99
1460.86
1305.55
1350.21
1473.43
1502.78
713.90
788.02
804.26
538.26
1151.58
1403.57
1490.20
1980.50
2062.16
1830.27
1086.85
1251.23
1561.73
1617.79
1457.00
1629.61
1590.68
915.82
1280.10
1407.04
1479.27
1446.41
1231.87
1426.54
1789.40
1705.45
1271.99
1322.52
1322.20
1744.53
2175.27
2844.68
2622.83
1292.24
555.66
2058.09
3172.65
3210.42
3007.03
2108.36
1459.18
1334.65
1082.50
1314.59
1133.33
1387.14
1460.65
1426.01
1097.78
1985.32
1445.44
1603.15
1648.83
1508.76
1368.12
1307.25
795.77
1661.86
1428.88
1382.74
1415.32
1297.85
1562.64
1481.85
1641.78
1896.27
1193.94
693.43
459.32
502.34
722.61
1474.29
475.18
790.08
1219.42
1370.51
1277.05
1179.96
1267.41
1521.22
1511.94
1688.22
1532.80
1031.06
874.58
623.41
734.93
530.85
655.19
656.63
1081.27
1466.03
1346.21
1875.26
1182.06
1811.81
1501.42
1464.84
1470.72
1683.36
973.05
788.97
593.62
621.03
1423.76
992.29
781.20
1398.45
1594.01
1481.04
1055.51
1354.19
1346.57
1413.29
1410.56
2240.62
1216.18
590.38
847.42
846.62
878.41
1022.68
1212.38
1265.95
1551.74
1716.33
2301.42
1269.81
1400.44
1477.57
1400.91
1523.38
1455.25
744.37
796.37
585.81
428.72
1693.35
628.23
694.15
1263.86
1404.14
1448.75
1216.26
1337.66
1435.17
1252.72
1482.93
3092.65
1674.86
668.72
621.10
561.31
682.23
868.01
979.91
1541.53
2429.05
3094.30
3493.81
2840.26
1940.95
1463.35
1585.24
1642.74
1740.46
1324.69
613.40
485.60
564.81
459.22
648.06
590.13
1012.28
1559.00
1444.62
1397.60
1262.50
1464.96
1242.69
1430.65
1198.75
3110.27
936.23
1264.02
1727.05
1817.68
1283.69
619.53
798.67
1224.97
1255.49
1360.28
4129.50
1026.15
1412.43
1328.75
1734.50
1662.31
1850.03
1490.40
1450.85
1237.86
788.51
2995.03
830.55
689.17
1496.60
1895.05
1572.24
1183.54
1248.97
1285.34
1423.84
1303.47
1869.19
1137.42
641.16
693.70
506.32
662.27
676.94
1086.29
1207.30
1794.96
1698.14
1421.07
1210.59
1388.14
1474.92
1583.90
1435.42
1457.48
799.49
641.55
449.30
601.90
878.94
1146.50
849.73
1296.51
1349.08
1538.18
1238.33
1130.46
1353.28
1464.65
1229.33
1307.22
4164.14
707.15
930.83
1053.81
1358.52
1215.61
1173.75
1213.67
1898.03
1651.54
1834.75
3102.89
1596.60
1784.66
1908.64
2016.17
1711.03
1224.42
1120.36
1080.86
620.16
456.57
2865.64
876.45
736.59
1267.99
1301.80
1344.48
1041.24
1299.35
1279.18
1321.37
1464.75
1378.94
656.54
722.47
537.16
808.42
688.22
658.93
706.40
1326.28
1783.12
1948.86
1800.72
2206.43
1781.59
1424.45
1557.23
1731.00
1579.82
733.45
639.33
724.22
1195.73
712.98
2159.49
1110.47
1482.96
1380.98
1481.42
1341.55
1997.74
1391.23
1415.73
1228.68
1553.35
3349.03
1055.60
689.13
837.86
1215.29
1408.90
987.70
876.99
1525.76
1864.08
1690.96
1342.67
1441.33
1409.29
1326.24
1601.15
1545.90
1244.69
1055.68
1192.71
631.13
537.15
1158.27
1286.03
1318.73
1479.06
1470.89
1385.51
1163.77
1375.29
1263.92
1327.48
1298.93
1382.32
939.39
1392.17
1638.97
1410.82
1043.34
644.58
700.83
1977.22
2750.57
3149.82
2612.34
2692.24
1928.53
1582.18
1329.23
1694.97
1357.25
775.84
675.63
1306.24
1520.60
908.62
1213.45
2524.02
2978.31
2270.40
1536.74
1309.56
1341.78
1450.19
1335.76
1523.49
1307.45
1669.54
2155.18
2448.11
2534.34
2033.92
1563.89
1545.92
1756.32
1605.58
1215.57
1211.96
1231.66
1390.63
2116.62
2384.94
1602.02
1462.39
698.32
597.49
661.83
821.69
728.77
1011.82
447.46
1346.81
1118.05
1387.36
1130.97
1300.45
1317.19
1439.01
1320.92
1292.14
1415.79
634.20
1004.53
992.40
698.85
789.34
1004.92
1081.14
1434.05
1639.71
1601.77
3372.51
1997.61
1931.62
1588.54
1588.57
1357.93
847.84
650.10
853.10
570.88
530.52
648.73
961.11
1035.42
1267.02
1337.34
1190.26
1219.38
1383.94
1243.19
1424.14
1447.35
1505.20
1839.46
956.02
814.52
737.50
541.15
1039.96
1101.75
2153.66
1956.16
1662.22
961.60
1261.98
1338.24
1341.36
1422.69
1462.23
1262.50
808.19
725.95
1065.05
1013.01
1108.76
1218.20
1443.96
1349.95
1504.02
1618.45
1529.61
2008.14
1773.21
1366.35
1532.21
1841.17
1470.94
1060.36
525.26
635.49
817.43
600.12
795.99
1334.05
1704.38
1778.79
1504.95
1299.62
2211.14
1638.31
1638.02
1622.41
1573.57
750.26
743.35
815.92
624.58
700.31
868.50
2989.94
1401.83
1465.96
1269.95
1198.91
1702.37
1372.80
1417.65
1734.24
1580.00
1370.38
529.94
864.94
2120.32
3059.63
3355.63
2665.78
2251.12
2901.77
2372.54
1566.27
1400.50
2748.81
3304.49
3247.09
2295.88
1524.79
1006.59
843.18
651.12
680.70
560.87
716.82
710.04
1426.95
1323.15
1464.95
1273.10
1265.39
1386.53
1326.04
1317.85
1257.32
1417.20
934.29
2028.58
1586.00
1822.31
1510.49
1320.05
956.10
1540.79
1557.04
1369.10
1123.44
1182.67
2087.06
1612.14
1556.92
1395.45
1351.53
636.62
601.49
673.22
646.57
767.29
1045.87
2814.04
1626.09
1389.32
1278.40
1203.12
1152.87
1410.84
1316.66
1334.87
1266.46
782.55
2243.44
1553.54
917.18
599.27
801.61
744.00
1407.57
1591.86
1690.16
1577.53
1530.06
1726.93
1607.50
1500.55
1443.22
1598.88
772.24
655.84
796.02
651.33
640.34
571.52
868.72
2136.50
1404.02
1352.70
1348.43
1322.66
1317.45
1463.27
1543.84
1681.90
1251.20
551.35
2146.70
956.55
1243.40
1118.04
1258.34
1480.72
1530.40
1787.01
1941.61
2166.24
2128.24
3070.48
1994.84
1700.32
1451.94
968.14
992.90
941.64
894.65
658.55
531.03
624.95
1146.07
1468.51
1234.11
1232.64
1171.79
1711.08
1893.44
1489.24
1397.66
1246.68
658.45
616.51
895.25
896.24
1238.46
1742.09
1580.00
1805.20
1495.20
1582.63
1160.51
1381.02
1591.87
2178.18
1665.79
1753.64
1476.76
1148.36
1357.07
1048.25
663.09
791.10
1223.24
1412.01
2069.22
1176.00
1357.88
1225.40
1313.92
1578.20
1658.66
1847.62
1992.65
1329.83
1042.99
1744.42
941.60
1049.87
776.15
828.90
1296.51
1438.07
1391.17
1256.72
1313.46
1519.78
1864.50
1591.53
1475.57
1648.55
585.97
789.42
473.39
588.51
569.60
1380.07
2205.47
2808.63
2094.66
1423.55
1214.44
1591.99
1586.45
1461.67
1229.78
1542.13
1242.26
843.90
1124.19
1415.62
1424.56
1581.92
1397.29
1236.34
1748.72
1427.06
1266.63
1341.90
1648.62
1882.40
1779.22
1857.19
1892.53
1424.13
1020.22
1140.64
933.10
566.61
698.44
1095.76
2167.32
2175.90
1479.90
1212.76
1330.99
1308.59
1331.57
1488.35
1230.65
1309.76
720.59
862.23
745.56
456.96
590.35
925.08
719.56
1441.28
1178.34
1469.87
880.12
1495.60
1877.67
2226.41
2452.67
2222.71
1777.59
992.16
908.78
692.94
805.70
1256.56
863.29
887.58
2264.62
1532.18
1235.82
1181.17
1247.76
1552.97
1411.18
1467.05
1271.89
1095.51
1200.83
3376.89
818.29
934.92
960.87
1421.71
2008.70
2627.18
2633.67
2198.77
2343.55
2407.91
1982.42
1661.01
1329.63
1502.21
693.98
641.70
717.17
621.64
740.39
719.15
639.70
1270.28
2011.94
1382.66
1077.70
1348.72
1463.15
1409.11
1305.28
1483.34
1233.31
878.55
703.25
1743.11
1170.59
883.11
728.37
704.78
1711.55
1533.06
1601.50
1447.62
1454.66
1527.04
3139.31
1692.06
1671.35
1208.83
876.12
989.43
810.22
717.73
561.09
753.90
1361.47
1445.55
1509.69
1290.71
935.38
1241.43
1355.31
1562.08
1393.61
1478.70
1318.51
1533.53
1515.68
1766.75
1716.07
1882.74
1554.87
1912.56
1483.68
1201.32
1734.95
1268.26
1258.38
1455.91
1707.44
1427.78
1632.32
1087.85
516.43
976.47
975.79
1020.93
1062.83
984.09
1547.92
2284.93
1298.23
1233.08
1326.09
1415.11
1398.93
1556.23
1795.38
2019.51
1534.14
846.88
1338.59
463.78
599.77
876.07
1206.18
1309.57
1337.52
1886.55
1871.53
1738.38
1618.78
2303.64
1383.45
1485.18
652.25
422.67
688.22
812.42
735.18
869.52
821.34
1415.41
1141.41
1381.56
1235.59
1231.65
1352.17
1300.33
1308.16
1439.10
1330.38
551.14
569.02
675.41
834.17
1139.11
1225.20
1001.84
1380.23
1650.79
1758.86
1473.81
1452.41
1522.67
1529.58
1728.73
1240.23
867.66
598.21
720.83
641.85
593.96
829.61
873.54
1208.05
1386.99
1431.88
1379.71
1242.88
1413.75
1159.49
1362.80
1402.11
1310.97
711.34
897.20
998.00
1106.72
1250.52
1288.61
1353.62
1924.88
2030.72
2103.42
1498.88
1369.87
1415.24
1409.88
1425.07
1575.38
1399.64
592.28
785.45
538.09
484.45
722.04
493.86
989.63
1357.97
1691.49
3321.42
1173.08
1170.97
1401.17
1250.01
1484.46
1321.16
825.49
541.01
651.95
1037.42
2625.74
1200.26
1546.59
2042.75
2356.88
2159.10
1634.14
1459.37
1778.08
1768.14
1686.81
1988.66
2368.50
2338.11
2155.47
1091.59
1438.69
2143.69
2115.96
3068.36
4250.02
3171.68
1833.03
1287.73
1446.15
1424.41
1347.88
1394.71
1480.84
1368.78
862.46
811.01
928.35
1356.10
1543.64
1295.89
1246.68
1847.08
1655.77
1423.26
1022.77
1136.18
1306.43
1467.05
1803.72
1657.56
1018.44
585.42
527.33
799.30
1199.85
1354.03
1128.90
1098.42
2157.99
2728.39
2336.78
1516.74
1253.82
1347.18
1458.14
1507.25
1444.74
747.18
782.09
747.17
1334.61
1628.81
1944.42
2117.28
2714.09
1952.21
1662.32
1003.80
1123.12
1342.28
1382.35
1153.96
1628.15
1270.82
573.57
602.87
900.98
782.93
707.68
722.91
835.24
1261.02
1366.01
1910.95
1163.97
1385.99
1507.91
1566.30
1632.02
1458.22
984.44
735.81
777.33
723.73
1967.09
977.39
705.38
1113.72
1304.75
1787.51
1588.44
1377.52
1683.33
1640.00
1425.26
1405.53
1488.28
737.12
616.92
814.36
556.87
549.51
666.81
907.63
1211.00
1096.14
1238.99
3394.93
1314.32
1338.14
1148.12
1309.70
1449.57
1464.72
577.03
561.97
734.49
824.87
2358.55
948.04
834.47
1559.28
1875.61
1955.90
1451.02
1441.96
1402.94
1312.83
1165.04
1394.53
1110.76
589.56
910.64
761.47
817.21
453.42
790.00
1071.33
1296.63
1302.27
1286.42
3106.90
1478.30
1502.78
1284.09
1446.94
1394.26
657.63
1009.62
913.56
1230.21
1340.27
3504.98
1376.79
1603.84
1522.67
1401.80
993.10
945.36
1482.11
1209.36
1358.57
1235.79
3036.26
589.16
632.47
504.88
779.74
664.98
879.12
1083.19
1385.52
1270.42
1747.58
1529.83
1745.07
1480.09
1290.37
1247.65
1385.08
794.76
895.23
1584.64
1196.57
839.36
797.23
1806.43
1433.92
1503.03
1375.09
1299.99
1219.09
1468.71
1561.67
1368.22
1264.26
1252.45
2514.20
1014.62
555.88
1056.91
1090.85
972.02
1006.74
1309.77
1377.54
1312.26
1053.85
1370.44
1094.54
1368.88
1424.76
1657.41
1382.89
906.60
937.95
865.52
843.53
578.87
462.98
708.16
1271.32
1353.73
1391.45
1246.93
1820.61
2118.68
1897.41
1694.71
1247.56
742.79
1755.83
1006.48
1420.26
1483.50
972.62
877.13
1086.74
1627.80
1983.94
1884.74
1503.10
3039.80
1288.77
1186.24
1291.63
1462.71
750.36
467.63
614.80
584.91
814.04
989.31
1257.57
2314.59
2289.14
2268.83
1247.02
1289.64
1245.10
1287.05
1159.77
1516.49
1251.46
792.01
903.82
1264.57
921.45
579.32
667.89
643.05
1373.47
1439.77
1249.12
1079.60
1375.80
2185.67
1498.82
1642.11
1676.68
894.62
479.11
752.37
368.40
499.54
946.87
886.23
1260.15
1542.41
1256.01
1146.25
1178.06
1268.44
1402.86
1522.21
1773.90
1909.00
1288.55
819.79
655.32
410.67
568.20
631.09
650.15
1311.93
1234.68
1434.58
1088.83
968.69
1164.29
2347.79
1470.34
1572.90
1346.68
632.23
578.66
712.15
1038.59
1031.61
807.41
881.20
1768.41
2042.56
2323.56
1838.81
1541.57
1398.83
1495.28
1404.05
1578.51
1128.99
707.95
715.42
709.86
578.71
741.83
731.35
1108.93
1211.32
1157.59
1071.84
900.38
1120.00
1213.36
3167.95
1353.25
1571.24
1605.52
1617.86
1412.70
1357.87
1322.52
1148.81
1064.96
1546.04
3243.01
1253.52
884.83
1207.51
1448.25
1173.05
1225.86
1341.87
1447.44
734.54
664.64
3501.14
713.56
823.22
593.90
515.82
1298.03
1139.86
1147.13
952.65
1351.31
1238.73
1232.76
1411.35
1300.03
1255.12
456.79
860.39
805.52
883.23
1250.20
1314.03
1395.75
1594.08
2057.30
1749.35
1712.37
1812.09
1398.07
1461.29
1227.61
1358.43
667.83
487.10
432.45
1401.12
520.45
620.49
680.24
1283.60
1314.74
1298.54
1063.29
1091.24
1219.25
1680.92
2743.60
1693.12
1533.52
996.76
784.87
457.55
926.66
683.82
505.38
638.02
1442.36
1765.66
2059.36
1607.97
1279.49
1587.82
1458.50
1380.89
1461.81
827.20
322.29
568.91
1137.41
2339.10
447.71
943.24
1465.09
1463.47
1868.40
1898.74
1609.08
1278.36
1553.11
1630.14
1960.57
1785.49
963.89
525.37
416.76
520.99
643.95
856.48
1008.25
1828.36
1800.08
1706.11
1433.57
1191.33
1406.65
1387.15
1498.54
1684.68
1525.47
1202.05
787.09
649.92
522.83
1501.17
537.42
624.41
1125.15
1120.66
1231.34
1159.92
1270.57
1479.46
1362.20
1611.90
3358.28
1401.58
988.74
847.81
909.11
872.86
885.88
1044.98
1424.11
2224.06
2459.02
1951.49
1229.66
1519.06
1029.78
1383.06
1243.93
1587.89
1297.61
1848.29
1898.72
1519.31
438.77
1328.13
1852.79
2925.19
3208.77
3319.00
2458.61
1479.84
1234.24
1804.11
1947.66
1833.79
1518.80
787.39
525.11
583.75
589.50
489.28
578.61
934.99
1793.17
1616.45
1572.56
2071.17
1534.17
1627.47
1440.36
1574.34
1365.41
812.74
628.29
787.91
745.22
671.13
1795.78
468.42
1222.86
1505.13
1412.01
1424.10
1234.72
1525.55
1566.69
1724.19
1736.26
1712.16
1146.11
1243.50
979.16
611.76
607.33
729.71
877.97
1429.39
1535.11
1658.93
1234.55
1645.00
2021.44
2339.35
1743.99
1803.39
1568.68
750.31
497.81
537.86
475.55
389.32
1395.82
801.03
1324.83
1214.89
1198.93
1286.23
1148.28
1261.55
1204.66
1507.90
1231.17
3267.70
631.70
731.91
874.20
777.30
472.88
687.95
861.40
1479.74
1743.87
1935.14
1495.48
2044.45
1483.98
1451.35
1348.05
1445.74
857.00
680.08
596.31
655.61
639.87
827.65
3564.71
1238.43
1228.66
1094.41
1218.17
1118.78
1045.09
1397.44
1154.33
1344.10
1422.79
1971.11
2792.21
2980.95
3231.13
2445.72
1207.14
629.04
1187.21
1385.29
1165.55
1131.48
1082.58
1601.97
1132.83
1292.49
1307.57
1502.47
1303.87
1176.42
582.40
1342.59
1987.41
1759.10
1438.79
1482.31
1366.37
1413.75
1243.92
1192.49
1397.02
1345.09
1372.54
1491.49
1015.17
1167.74
1258.08
1637.41
1416.15
1515.51
1382.44
1646.06
1678.13
1826.78
1918.06
1996.57
2027.21
1443.13
1323.76
1442.55
1345.37
1101.79
1815.72
1468.23
499.77
641.77
423.29
741.64
1208.11
1239.50
1315.26
1270.87
1283.93
1266.76
1231.99
1540.44
1594.19
1499.01
1835.59
1633.10
1319.78
909.68
645.46
804.23
974.23
1853.34
1806.72
1503.80
961.79
1571.78
1568.51
1361.15
1465.27
1514.37
1047.02
1570.98
1416.74
1006.34
782.80
725.56
830.91
1372.03
1537.51
1432.40
1122.14
1217.27
1471.85
1367.18
1422.71
1386.95
1482.79
2063.46
2738.23
3474.49
2769.96
1837.76
635.50
1224.34
1226.33
1480.75
1511.84
1406.49
1417.85
1398.10
1397.75
1397.57
1234.65
1128.55
775.59
871.60
564.12
762.52
609.82
1702.63
774.84
1349.67
1982.87
2670.85
2934.77
2198.31
1363.72
1265.76
2373.95
3488.79
4214.07
2487.57
1623.19
727.72
887.35
1252.34
1743.76
2494.94
2098.01
2404.18
2484.21
3225.92
2800.34
2810.10
2527.74
1743.15
1384.15
743.27
1069.23
1243.87
1055.04
740.84
1493.92
1776.27
2262.26
1893.47
1400.79
1051.89
2838.60
4193.64
4290.62
3365.27
1869.23
2019.18
564.35
1340.70
2029.50
2392.00
2257.76
1694.33
1592.76
1522.37
1693.09
1745.71
2307.63
2139.01
2710.60
2859.01
2604.38
1848.99
647.18
1486.31
2930.58
3645.21
2463.73
3608.34
1482.45
1666.21
1553.31
1266.00
1328.71
1393.84
1338.39
1799.40
2199.52
2187.87
3249.62
1212.23
811.83
784.59
664.45
785.27
1325.11
1226.74
1352.51
1321.60
1738.17
3102.79
2156.51
2064.29
1798.21
1468.31
1429.71
861.90
591.27
618.25
439.29
634.24
3532.47
801.35
1369.77
1249.08
1386.57
1296.57
1226.95
1258.68
1346.35
1450.60
1296.61
2427.98
972.50
842.57
371.54
946.81
1224.64
1487.19
1154.86
1728.25
1784.98
1713.21
1513.28
1338.63
1548.80
1534.14
1478.98
1328.95
1590.00
1197.34
1025.48
953.71
843.98
620.10
469.82
619.24
1482.38
1287.89
1589.85
1229.73
1284.73
1389.05
1738.17
2134.18
2146.23
1255.87
788.95
1063.40
660.75
528.99
790.47
757.24
1145.04
1344.63
1456.83
1385.72
1438.19
1711.42
1601.15
1800.18
2119.66
1834.71
806.38
588.30
308.39
613.06
821.85
1705.28
1890.02
1678.13
1370.90
1476.72
1580.17
1728.56
1992.14
1732.57
1655.63
1466.82
1452.85
585.42
592.18
1121.99
1142.32
631.42
760.84
642.64
1473.09
1324.42
1887.49
2131.66
2772.47
3668.28
4105.74
3720.34
2793.99
1312.41
1208.02
1907.80
2182.44
2322.63
2165.36
1104.53
1369.68
1450.10
1521.76
1197.76
1299.17
1438.13
1399.58
1391.71
1386.50
1415.45
779.34
1140.68
1020.25
1312.95
1437.38
1910.61
1690.73
2696.60
3518.38
4256.04
4225.97
4250.03
3333.50
1429.30
2565.93
3708.76
4223.28
3593.17
2889.90
3376.91
2456.40
652.81
603.97
1123.95
1506.55
1301.94
1369.41
1183.22
1427.68
1361.65
1359.18
1350.47
1677.21
1442.02
1016.94
783.66
518.36
591.15
744.09
781.71
1408.66
1789.85
1704.10
2072.21
1647.03
2147.90
1528.79
1439.96
1677.69
1591.06
620.88
631.91
365.02
468.20
924.52
708.73
672.85
1491.14
1406.96
1572.25
1511.19
1437.61
1735.15
1940.68
1803.23
2336.70
1414.69
625.72
401.07
465.81
867.13
1221.38
1073.93
1068.45
1587.27
1485.86
1972.23
1458.38
1690.44
1688.31
1451.92
1555.54
1384.56
1484.50
1011.61
1109.62
708.74
1857.11
927.82
652.53
1465.60
1886.03
1703.97
1498.70
1148.97
1350.11
1771.73
1894.56
2189.38
1505.04
629.34
646.74
582.62
630.31
755.88
699.72
583.69
1457.54
1564.84
1840.40
1504.18
1671.66
1399.91
1406.46
1443.58
1718.10
1619.60
755.31
507.61
484.92
466.77
941.66
568.04
977.00
1249.50
1425.71
1333.85
1270.17
1238.00
1447.39
1504.68
1732.99
1492.70
1412.04
719.56
547.77
526.13
666.70
692.13
1048.35
1694.01
2301.41
2914.48
3057.54
2582.84
2314.59
1902.71
1907.89
1617.96
1556.43
628.80
660.35
607.63
649.11
672.31
1873.44
637.22
1295.95
1217.80
1396.06
1460.16
2498.10
1696.86
1262.26
1403.68
2232.64
2296.63
1679.08
967.16
869.63
395.94
667.13
951.67
776.96
1415.44
1450.71
1513.82
1412.25
1809.70
1680.05
1418.87
1823.65
1790.11
1376.32
899.70
1046.48
1540.40
1519.99
746.86
1719.89
1207.18
1561.19
2572.48
2616.76
1709.35
1255.46
1449.79
1425.63
1477.31
1494.80
1520.12
1218.90
931.32
681.89
521.22
487.64
673.60
1313.18
1749.73
1632.27
1497.64
3242.88
1985.28
1982.94
1567.27
1453.76
1486.36
693.80
816.79
650.60
502.54
657.11
903.32
949.68
1267.30
1194.97
1412.74
1357.94
1456.06
1242.96
1430.52
1520.93
1402.47
1346.00
1436.97
1219.25
1314.18
1517.20
1399.60
1379.14
2019.29
1907.92
1819.35
2475.86
2833.38
3478.99
3627.20
2426.28
1467.24
1507.08
1207.95
1888.63
1488.23
1524.88
1331.62
680.57
1400.31
1416.46
1446.22
1703.92
1387.83
1362.77
1393.35
1994.26
1841.40
1383.68
1211.40
2022.63
876.13
885.97
568.39
685.80
635.82
965.52
2154.95
2000.18
1916.73
1438.64
2350.22
1913.98
1505.06
1414.81
1484.03
1499.33
712.87
543.20
577.36
556.15
552.29
2245.34
1623.43
1483.72
1418.39
1366.48
1149.79
1487.80
1293.43
1761.78
1637.21
1533.24
2686.34
1326.33
1128.14
1060.64
969.94
1064.23
824.97
1618.22
1415.98
1350.40
1290.22
3556.25
1330.64
1456.04
1216.56
1833.38
1443.54
741.01
590.09
566.34
704.30
548.89
3410.93
884.41
1426.47
1459.87
1224.24
1325.87
1167.61
1534.87
1853.40
1768.34
1657.85
4087.24
1107.20
1066.44
540.27
497.83
641.60
489.92
1739.66
2752.64
2717.17
2382.30
1853.07
1392.99
1482.71
1349.08
1416.00
1490.56
975.17
669.93
507.46
773.74
590.37
825.60
778.76
1211.99
1452.88
1466.97
1327.42
1403.27
1856.25
1556.36
1338.43
1492.16
1359.43
1554.60
710.45
682.92
636.75
1335.67
1830.91
1531.02
1872.74
1534.15
1418.70
1198.14
2968.13
1453.71
1286.43
1197.73
1282.09
1491.44
949.79
1103.85
1042.36
1277.82
1396.03
2744.25
1464.15
1553.13
1485.02
1467.10
1228.44
1509.05
1383.58
1460.94
1344.26
1519.45
3221.69
901.08
923.70
1240.10
909.20
763.52
700.44
1300.59
1594.93
1865.88
1479.90
3573.61
1680.32
1521.06
1431.80
1422.04
1416.10
893.01
1093.07
1166.90
1047.17
583.18
1282.55
1604.56
2893.14
2671.80
1774.46
1232.06
1256.40
1431.43
1438.61
1269.11
1484.69
1251.38
633.90
702.74
1103.90
1411.72
1736.03
2579.92
2925.21
3211.71
3568.58
3126.49
2676.23
3290.18
3339.35
2251.48
1232.72
2087.63
3025.29
3688.52
3397.38
2921.28
2587.65
2409.41
2031.89
1903.66
1449.63
1481.70
1182.77
1338.37
1304.22
1669.47
1677.63
1641.80
1487.16
1127.99
985.55
1153.83
1211.29
1085.38
1440.95
1621.64
1919.35
1939.81
1691.93
1434.63
1380.02
1507.23
1265.28
1399.86
1369.93
1473.68
753.01
1149.43
779.60
861.17
662.30
642.42
1094.67
1634.73
1688.87
1466.14
1288.83
1511.46
1384.36
1570.36
1864.38
2191.14
1472.80
1233.28
442.37
1336.37
1870.86
1728.01
1276.52
1329.62
1401.83
1597.96
1369.92
1902.71
1915.77
2064.30
1912.45
1794.43
1716.35
696.52
816.58
397.32
766.76
526.54
616.63
1019.08
1295.69
1432.44
1642.24
1472.73
1336.89
1473.33
1582.70
1389.77
1358.63
1509.33
1342.46
1589.72
1542.73
1700.77
1508.79
1445.14
1428.97
1680.68
2160.94
2028.08
1724.90
1962.92
1481.14
1477.40
1564.90
1906.29
1180.34
619.34
1046.95
1751.61
1885.44
1971.33
1392.87
1627.45
1402.48
1452.05
1360.28
1575.56
1393.49
1467.75
1241.79
1297.19
1755.70
511.05
651.41
966.98
1314.17
1496.96
2310.86
2563.99
2610.57
2095.71
1502.34
1436.14
1563.30
1373.18
1267.59
1470.28
1708.00
1640.90
1139.98
826.32
626.76
998.92
1508.96
572.26
1324.91
1393.02
1458.47
1506.59
1308.80
1323.43
1519.26
1484.01
1447.06
2389.65
755.38
716.81
846.16
1152.87
1185.33
1446.08
1102.04
1607.55
1545.88
1493.31
1737.83
1606.89
1449.81
1628.14
1437.28
1530.63
1637.95
1145.08
1063.46
1101.03
923.86
1838.95
703.23
740.65
1184.31
1476.20
1296.84
1320.42
1140.80
1525.68
1761.39
1711.27
2361.43
1422.85
956.99
1477.96
1612.64
1541.41
913.24
621.15
978.14
2163.81
2330.21
2759.83
1883.65
1513.12
1412.22
1419.45
1517.30
1495.60
955.46
696.98
484.72
681.92
2362.72
581.56
847.01
1495.20
1665.76
1440.89
1328.20
1533.83
1230.72
1420.12
1337.90
3519.05
1393.52
1089.99
1104.70
1100.22
1061.46
1110.89
565.37
620.45
1536.38
1805.11
3429.41
1356.10
1491.04
1760.67
1821.90
1670.80
1759.79
1676.24
742.82
866.27
621.13
3299.14
475.14
637.11
1462.65
1398.79
1455.81
1572.25
1363.60
1312.68
1255.51
1606.64
2408.76
1459.67
798.11
487.40
442.54
1145.59
1769.61
2122.41
1801.78
2723.34
2303.69
2582.78
1386.43
1315.67
1587.89
1371.67
1300.95
1525.93
1346.59
755.36
599.25
1128.20
1082.86
976.64
661.35
828.28
1220.59
1750.11
1384.42
1322.41
1048.68
1705.01
2063.14
1855.94
1488.27
1391.84
554.02
828.96
363.01
576.74
815.16
1120.69
2224.76
3325.38
3150.10
2146.28
1249.51
1477.68
1290.26
1327.22
1258.45
1444.67
812.27
596.61
710.51
415.29
698.02
907.55
878.90
1431.05
1396.41
1373.61
1215.11
1451.56
1271.38
1356.23
1412.61
1587.31
1634.93
1396.34
1509.75
1232.79
686.00
653.48
785.60
973.28
1877.21
1880.77
1480.30
1493.53
1308.77
1415.34
1244.12
1551.46
1562.62
1746.64
1048.80
1239.55
1060.57
1306.00
1050.91
871.29
1624.05
1424.24
1358.12
1520.72
1528.02
1442.68
1466.33
1685.35
1663.96
1693.16
980.51
610.00
664.75
748.77
455.74
551.61
883.98
2594.22
3117.35
3533.24
2955.67
1978.97
1365.40
1604.17
1916.81
2543.27
1936.18
1172.87
567.14
957.06
1346.70
1043.43
603.81
801.90
1217.26
1342.42
1341.28
1218.81
1440.21
1495.48
1344.15
2474.93
1192.63
1452.44
621.34
812.29
753.06
1117.69
1136.06
1231.76
2108.02
2620.53
2901.83
1919.32
1292.32
1436.80
1478.58
1469.05
1299.33
1491.06
760.78
961.20
981.12
2096.98
620.80
889.68
676.70
1430.07
1436.99
1550.39
1604.25
1590.33
1418.68
1415.88
1702.19
2229.59
1980.49
1913.97
1865.82
690.57
904.26
1256.26
1351.34
961.86
1444.98
1815.26
1646.81
1441.42
1155.97
1516.64
1409.84
1437.20
1619.35
1761.77
998.32
1039.18
556.13
872.57
881.97
587.14
1308.13
1439.54
1226.87
1279.25
1716.84
2185.56
1778.71
1523.14
2092.67
1518.17
1118.42
858.84
678.18
644.28
562.97
882.94
736.65
1672.87
1736.63
1845.00
2043.52
1830.64
2189.46
2074.88
1717.87
1582.70
1381.25
675.51
541.23
451.41
758.81
552.25
711.08
785.96
1686.17
1621.55
1717.68
1590.64
1374.32
1424.03
1417.32
1533.91
2865.21
1576.14
1179.06
1628.10
1575.31
1330.04
1087.75
942.60
1093.13
1800.55
1244.77
3583.19
1287.30
1478.87
1652.73
2026.82
1874.04
1955.26
1028.86
841.14
1281.47
1282.70
3661.28
437.85
415.81
1448.75
1337.36
1492.16
1222.51
1286.91
1307.48
1667.24
1482.26
2194.52
1241.19
598.17
783.01
1196.47
1071.03
1165.84
685.45
685.61
1409.06
1721.28
2385.78
2993.91
2968.87
2447.50
1794.68
1462.37
1370.65
1576.64
1454.07
796.92
612.98
485.98
657.81
606.11
1123.76
1584.02
1790.27
1625.34
1446.08
1353.61
2104.43
3380.48
3405.93
2437.49
1472.79
630.32
492.48
663.30
656.00
1393.63
1617.68
2518.03
2116.76
2489.18
2341.29
2115.88
1767.87
1439.10
1505.40
1526.08
1590.63
652.81
725.47
531.73
613.83
1627.54
934.77
758.42
1475.90
1512.92
1883.65
1606.61
1358.46
1230.18
1404.29
1471.31
1798.06
1691.42
829.01
673.84
823.52
1067.87
1303.67
1138.64
1414.09
1761.74
1562.29
1624.38
1647.27
1628.80
1283.72
1530.17
1382.69
1378.40
833.83
695.33
527.23
942.19
1324.10
1615.42
1143.81
1399.14
1263.13
1593.53
1738.69
1812.47
1354.63
1582.17
1235.53
1403.71
1570.85
818.50
897.68
849.95
742.86
819.51
1081.34
1147.81
1961.65
2002.47
2029.94
2425.94
1474.66
1564.32
1684.96
1664.63
1741.99
1879.66
1457.71
1830.71
1679.67
1491.50
1565.89
808.81
1436.11
1819.12
1873.26
2262.27
2129.77
2122.79
1413.93
1582.87
1358.81
2622.95
1466.37
1817.72
2326.17
2891.08
2350.70
1663.54
1002.57
1721.96
1548.75
1607.85
1927.84
1300.43
1314.27
1470.81
1302.93
1543.34
1329.11
773.06
426.68
582.36
648.96
1740.21
975.83
1050.33
1033.08
1477.66
1318.04
1337.96
1371.56
1222.26
1248.97
1295.11
3011.08
1650.71
758.79
986.23
1344.52
1170.18
1587.88
1605.19
1682.38
2224.49
1937.74
3070.03
1644.51
2409.31
3758.91
4116.66
2416.22
1603.31
1592.81
2800.79
3334.35
4087.93
4235.84
1146.54
613.54
1432.04
1156.71
1385.72
1473.38
1806.99
1577.15
1490.45
1429.39
4255.73
1465.66
849.03
446.45
616.56
884.69
1110.28
994.26
925.99
1656.46
1559.83
3469.24
1379.33
1413.81
1860.93
2356.16
2297.09
1976.25
1530.43
504.89
701.20
1202.07
1402.81
475.87
700.28
1240.55
1280.89
1309.35
1286.09
1302.38
1482.44
1461.58
1375.87
2029.78
2314.17
1976.68
1512.23
1093.62
725.51
743.16
543.50
720.68
1436.12
1493.57
1744.70
1893.46
1864.35
1741.38
1809.92
1637.07
1639.98
1402.52
812.80
1542.36
701.90
845.38
1571.60
1853.45
1386.60
1519.42
1519.13
3141.37
3230.04
2900.76
2114.56
1634.50
1509.35
1494.20
1415.05
1065.05
1450.79
1180.78
1154.62
946.88
772.10
626.09
2108.38
2282.66
2357.11
1767.53
2276.59
2140.91
1992.94
1508.87
1438.30
834.64
954.08
1551.80
1814.66
1530.52
991.82
764.35
2563.88
3078.34
2808.88
2085.51
1604.66
1455.04
1400.62
1434.91
1435.25
1383.41
1016.91
1081.07
1469.52
1807.52
1666.19
997.86
683.65
1144.57
1410.97
1498.43
1802.47
1798.33
1852.85
2125.52
1976.65
1445.72
1451.29
530.82
913.14
911.36
1144.49
741.25
949.57
1051.00
1787.84
2008.72
2222.02
1520.90
1522.05
1364.58
1574.35
1888.35
1544.35
1308.62
1021.46
783.86
754.39
852.36
1213.92
1833.46
3145.93
3258.41
2969.68
2244.91
1550.84
1485.88
1573.20
1613.28
1520.35
1553.46
706.41
693.33
575.28
1000.21
1069.38
710.44
807.02
1458.66
1781.61
2299.99
2053.53
1499.07
1580.93
3020.04
4236.21
4140.12
4189.85
4191.85
4210.10
822.35
4221.67
4228.50
4176.72
4156.65
4225.08
4239.22
1563.45
1203.48
1706.31
1555.03
1886.50
1801.83
1730.14
949.49
662.96
611.69
3735.87
526.79
602.83
535.31
1475.28
1313.34
1372.71
1275.75
1289.25
1338.78
1418.07
1267.42
1493.65
1486.91
1173.68
1342.77
1266.45
897.01
856.89
641.60
863.67
1472.40
1793.81
2578.42
3522.47
4238.99
4264.28
4188.58
4210.18
2780.48
1891.00
781.64
1149.54
3132.05
3691.95
4075.42
3621.78
3375.27
2464.53
1564.86
1397.64
1279.62
1470.38
1294.56
1415.43
1921.90
2119.25
1214.19
619.24
622.11
950.27
1356.32
888.96
823.98
2736.67
4288.52
4223.65
2774.97
1629.62
1461.69
1736.18
2256.99
2313.10
1866.77
703.49
497.44
787.51
685.38
724.86
713.15
702.81
1441.17
1327.08
1381.01
1422.21
1585.31
1363.42
1606.94
2738.68
1972.67
1665.34
958.08
840.02
391.51
1116.67
1969.16
933.44
739.75
2146.48
1827.24
2415.42
2361.55
2398.79
1706.00
1826.14
1713.59
1857.37
1800.05
2055.48
3884.03
4207.20
4217.44
4253.92
2908.87
1718.24
4213.64
4220.19
4229.19
4190.38
4273.77
3006.50
1570.02
1267.23
1502.45
1021.01
706.93
721.53
918.93
843.54
718.37
1112.72
1803.49
2509.48
3081.87
2022.55
1555.58
1713.26
1350.09
1482.53
1677.06
1700.48
1369.14
1124.63
796.06
1068.01
681.70
822.62
1374.14
2277.75
2370.26
2278.10
1894.57
1458.35
1438.27
1843.10
2974.84
3518.32
3632.07
3541.32
3785.65
4183.84
2386.98
833.98
1889.26
2665.03
3563.02
3640.67
3467.22
2541.63
1448.64
1679.76
1966.68
2029.81
1997.82
1228.14
1258.15
1148.04
844.13
633.54
506.89
991.47
1876.28
2112.49
1830.09
1278.94
1426.11
1472.62
1415.73
1990.46
2200.23
2701.88
2431.02
1668.06
676.35
765.18
822.86
815.19
1065.24
1588.60
1525.23
1546.12
1340.99
1825.88
1765.96
1635.48
1618.84
2084.26
2133.63
2158.68
1717.35
1456.22
828.62
582.40
710.37
1864.70
2224.79
1720.92
1661.03
1452.53
1546.43
1535.39
1708.30
1549.28
1226.90
838.84
687.65
682.96
651.12
655.76
550.88
740.95
1531.87
2698.24
2460.94
2696.39
2935.76
2753.27
2474.86
2193.29
1827.95
1623.23
674.12
1433.93
2684.02
1429.07
887.85
600.60
1414.80
2066.28
1457.32
1340.95
1455.67
1844.35
2029.80
2508.79
1528.00
1324.23
1288.78
1398.93
2040.31
2025.76
1464.09
595.61
683.16
1314.53
2569.33
2053.14
2393.71
2418.60
2478.26
2893.47
2742.46
3149.33
3115.49
2548.41
2075.36
2173.97
501.62
874.00
1067.73
1088.73
2827.84
3351.82
2414.47
1604.61
1796.06
1274.71
3409.80
1700.57
1537.40
1786.10
1027.69
893.50
864.74
779.24
808.66
800.83
1090.65
3019.07
2210.83
2579.04
1666.35
1407.65
1434.78
1589.04
2020.84
1777.42
1529.05
674.71
3471.06
655.10
494.64
578.21
1250.33
1866.39
1561.09
1222.32
1457.39
1367.83
1690.81
1339.04
1450.57
1451.51
1959.68
1520.06
861.65
449.67
1669.18
2833.64
2301.55
1198.69
1413.52
1380.18
1548.25
1125.66
1533.29
1616.05
1482.88
1469.43
2178.89
2045.90
696.96
688.39
711.07
886.70
1104.43
1242.64
885.55
1236.58
1526.74
1463.12
1346.52
1487.35
1349.68
1397.37
1741.33
1600.38
1441.64
738.29
811.84
970.18
844.45
772.35
661.62
999.85
2057.18
1710.83
1869.01
1542.28
1739.23
1848.55
1687.71
1688.24
1479.57
765.43
622.02
2220.05
658.44
893.69
774.66
582.70
1478.21
1604.76
1289.37
1381.41
1632.00
2405.40
2076.17
1836.11
1642.99
1260.33
1768.43
1953.67
2059.19
1179.38
814.50
965.42
1050.34
1839.56
2133.46
2414.40
2526.03
4006.32
4182.23
4197.55
4169.32
2433.88
1387.86
1740.62
2496.35
4175.25
4157.00
2880.01
2149.93
2271.73
2321.71
2022.81
1867.87
1348.16
1493.07
1422.13
1784.29
2187.67
2772.84
3052.95
2828.22
1639.86
654.16
1510.17
2466.91
2354.05
1632.01
1872.20
2024.71
2648.27
2948.43
2532.08
1689.94
1423.84
1659.92
1641.49
632.30
694.94
691.05
497.16
523.79
714.35
1034.55
1427.27
1206.17
1469.41
1306.52
1448.36
1344.88
1876.48
1640.67
1439.45
1327.40
679.53
760.82
698.33
611.50
627.73
706.61
1733.21
2175.30
1885.46
1803.69
1757.94
1709.35
1826.06
1781.66
2098.57
1594.36
980.78
866.54
2069.71
826.67
888.80
733.65
690.42
1487.70
1455.90
1460.86
1387.85
1422.96
1795.34
3600.69
1931.85
1788.92
1859.50
1420.17
1758.22
2546.62
2488.14
1432.26
878.71
1103.91
1952.93
1690.16
1471.95
1333.35
1440.85
1581.25
1643.74
1803.87
1791.00
1696.39
850.19
528.47
868.23
593.50
797.89
697.89
1598.42
1564.18
1522.47
1450.67
1945.02
2369.74
1712.44
1677.22
2957.05
4256.66
3294.83
1586.47
732.55
586.78
1312.41
1425.16
1957.36
3561.46
4012.50
3181.40
2182.89
1841.43
1787.63
1507.65
1591.84
1643.47
1526.03
821.78
590.04
587.88
842.97
1395.37
1447.08
1297.70
1379.95
1220.00
1353.06
1556.15
1784.81
1829.32
1889.02
1747.36
1563.78
1485.12
625.29
1490.40
3275.82
3419.22
1935.56
703.42
1574.25
2142.97
1951.87
1825.51
1964.66
1786.26
1709.36
1502.96
1532.86
1348.19
1438.78
885.55
1022.87
686.57
1262.29
1786.55
1504.81
1413.07
1358.88
1334.15
1409.48
1279.50
1459.34
1401.66
1463.41
1649.91
1478.94
946.17
1387.63
1365.21
1707.93
1749.59
1936.56
2466.70
4205.20
4252.79
2460.51
1285.75
2571.39
3517.06
3488.38
2554.79
1784.05
1475.40
788.09
1640.07
2563.96
2263.51
1377.26
725.86
1347.83
2304.10
2375.09
1437.19
1263.05
1484.54
1928.54
1554.39
1357.68
1529.95
846.81
645.54
571.39
576.05
848.37
998.32
1264.34
2020.98
1762.90
1903.24
1681.83
1733.14
2079.81
1762.27
1905.02
1901.70
1653.55
840.08
1430.00
666.87
1245.40
1432.05
1104.86
1113.74
2057.01
2092.84
1469.42
1263.71
1392.20
1875.17
1418.50
1430.41
1472.79
1708.75
1514.11
1696.92
1769.96
1262.90
920.36
1144.11
2380.85
1680.20
1552.45
1462.42
1155.63
1433.47
2044.15
2597.41
3509.76
4240.31
4222.94
4071.79
1846.29
1842.06
3527.04
4232.12
3440.54
3560.83
2535.80
1892.88
1336.51
1154.82
2332.88
1630.51
1604.23
1489.05
1344.91
542.74
643.46
1007.33
1275.04
1445.23
2556.91
3245.61
3786.77
2902.70
1878.92
1196.71
1095.09
1752.35
1787.81
1516.34
1365.03
1862.92
4018.38
2015.02
1235.17
752.57
1585.87
1592.70
1463.26
1928.73
2597.33
2837.49
1954.91
4260.03
1554.24
1435.22
1550.42
1598.05
1647.45
2051.38
2125.43
2170.15
1701.83
1924.16
3085.30
2027.83
1591.43
1523.26
1804.85
2547.21
2064.48
1940.55
1774.41
1544.86
1502.36
3451.34
1043.08
647.47
585.20
541.92
893.18
1382.79
1594.54
1648.07
2092.29
1725.85
2939.44
2113.33
2515.70
2385.58
2506.10
2018.59
1988.94
1671.34
747.97
503.89
1121.07
1699.00
1436.76
1747.07
1503.72
1759.58
1345.39
1481.51
1652.35
1433.03
1822.20
1733.17
1615.32
1419.72
1116.45
944.13
907.42
698.88
681.45
1607.41
1514.67
1528.44
1584.62
1342.48
1707.75
2210.10
2299.95
2218.69
1967.30
653.16
1688.47
2079.89
1788.19
1495.92
1362.52
924.74
1708.29
1764.52
2191.32
1731.13
1418.03
1858.76
2149.46
1543.49
1456.82
1369.87
711.09
1315.65
1123.29
685.75
594.81
903.51
1476.33
1618.78
1857.61
2202.30
2213.18
1765.08
1425.95
1477.97
1642.94
1860.81
1519.85
1083.63
790.51
637.90
804.19
1064.99
991.19
1769.84
2336.83
1944.86
1446.97
1131.95
1649.76
1577.66
1703.86
1692.61
1603.05
700.11
823.19
874.61
691.47
600.65
645.34
705.12
1177.46
1590.28
1561.32
1425.62
1685.32
1483.93
2047.88
2262.82
1810.63
1407.41
1116.90
1023.38
1404.26
1033.27
1017.73
925.41
1227.36
1407.89
1378.30
1173.40
1158.69
1640.76
1574.52
1688.59
1602.38
1382.27
932.49
556.82
535.03
496.91
655.73
682.83
686.16
1400.55
1601.01
1430.82
1551.89
1633.54
1672.57
1967.59
2236.08
1769.58
1688.50
921.68
1200.74
1492.49
1088.34
597.69
1928.88
2208.62
1434.46
1375.24
1709.62
1521.58
1869.95
1422.92
1503.47
1457.23
1503.06
1668.48
611.24
1001.99
1086.51
1355.30
1188.63
862.19
1300.89
1620.30
1631.49
1500.76
1855.44
1621.44
1619.11
1371.38
1486.25
1421.98
2544.23
3082.90
2411.37
873.78
1637.40
2271.54
2498.98
3301.81
3582.04
3241.51
2609.08
2257.64
1769.87
1373.03
2088.81
1768.65
2853.22
693.05
627.75
1101.16
1279.76
1533.37
1431.56
953.49
1259.06
1361.17
1380.67
2070.21
2543.87
3175.28
3435.71
3144.91
2124.63
1277.48
1161.06
1650.75
1645.87
1400.92
2145.87
1026.62
1127.76
1414.66
1570.84
1457.37
1384.85
1243.03
1696.39
1557.98
1608.05
2433.41
1321.45
966.33
1098.41
907.42
710.02
636.88
613.96
1234.51
1307.29
1243.74
2826.70
1448.11
1454.11
1132.85
1561.13
1435.78
1737.29
1316.43
1124.86
1083.61
1226.31
2949.81
1546.25
702.55
1653.21
1155.45
1552.70
1341.56
1471.80
2009.29
2104.75
1489.13
3926.25
1437.31
813.97
1803.00
2445.77
2514.19
2191.86
1610.41
1225.95
1275.16
1861.79
4185.96
4304.06
4198.87
3631.49
2426.76
1629.05
1405.49
1426.31
1485.23
970.47
841.74
2639.85
1828.53
1264.23
1338.94
1494.24
1742.42
1803.11
1658.56
1706.61
1534.79
1708.29
1563.24
2221.33
1931.61
1341.82
926.04
959.05
758.90
775.17
615.97
1590.96
1492.07
1510.51
1307.18
1524.70
2110.98
2298.54
2018.11
1517.88
1473.68
489.58
940.99
1445.03
906.26
1010.45
1079.05
1372.68
1670.37
2046.27
1628.38
1470.55
1406.40
1206.82
1149.90
1405.38
1488.93
1162.68
646.12
405.51
676.63
579.63
1039.31
428.34
1442.08
1401.14
1394.65
1637.67
1411.59
1694.74
1459.01
1816.58
1607.42
1730.64
852.22
742.20
855.01
542.78
957.27
596.62
1722.24
3462.38
3784.76
3484.70
2293.33
2152.57
1896.78
2297.65
2265.08
2172.48
1460.74
1127.98
3203.21
4159.69
4213.92
3623.21
3137.88
1883.31
1430.03
1460.54
1646.47
1566.10
1261.26
1662.66
2213.73
2946.47
3348.83
2562.46
1598.09
960.37
962.68
1432.65
586.21
922.35
1441.30
1462.88
1369.31
1732.97
1589.44
1705.54
1381.35
1597.16
1550.19
1372.89
1055.99
1175.66
883.45
608.19
517.54
728.73
752.99
1535.51
1268.92
1460.12
1113.98
1365.57
1427.99
1342.44
1304.46
1447.15
1393.44
793.18
814.86
834.20
879.96
803.54
617.54
1331.77
2103.71
2564.29
2014.89
1413.35
1346.92
1996.33
1838.09
2146.63
1793.61
955.19
574.98
640.53
781.40
777.07
381.41
926.93
1500.41
1115.14
1387.50
1396.04
1155.09
1475.07
1357.23
1880.92
1443.35
1430.21
769.57
601.53
637.26
1372.31
1212.85
969.32
874.34
1820.71
1439.80
1583.23
1405.58
2067.98
1971.03
2314.86
3156.06
3950.15
4148.49
2452.43
1003.22
686.11
1385.67
1814.83
1853.65
2753.44
4269.96
4166.78
1787.13
1462.50
1781.27
1592.58
1581.85
1720.36
1580.58
1311.84
650.09
562.77
1449.21
1011.48
725.06
1113.77
2536.82
2743.17
2189.70
1783.97
1769.99
3077.21
4118.18
4185.89
4212.75
3092.59
1136.08
1544.97
3459.62
3597.00
2814.71
2102.98
1649.24
1600.19
2652.03
1457.98
1299.38
1272.21
1288.44
1615.40
1412.03
1263.47
1371.49
1196.60
1717.96
2645.35
1101.63
748.56
672.80
1169.58
1422.04
1615.54
1525.28
1702.94
2457.01
3002.24
3493.97
2537.74
1984.10
1553.47
1275.47
1630.35
1137.18
570.38
2051.45
2753.07
3623.43
4246.53
2796.53
1994.38
1670.09
1375.95
1362.90
2024.76
2540.03
2637.43
1238.25
757.58
3359.52
1147.51
1320.99
1503.56
1889.85
2858.45
2789.93
2464.22
1362.54
1290.10
1250.88
3226.78
1338.79
1355.36
1672.37
450.00
681.40
642.07
467.94
559.52
975.13
1596.16
1374.75
1531.90
1259.13
1230.12
1291.41
1583.39
1591.62
2117.79
2012.89
2447.22
2411.46
1723.42
775.68
599.75
1229.89
1598.16
1215.23
1773.04
1960.53
2023.64
2047.89
2498.08
2197.11
1960.56
1942.28
1884.21
917.56
591.40
1130.52
1477.78
1011.63
912.38
718.27
1471.32
1463.44
1472.11
1194.50
1557.89
1287.74
1484.61
1209.61
1358.71
1323.77
632.80
513.18
870.94
730.83
1076.36
1375.65
1690.55
2478.78
1904.84
1519.13
1420.43
1766.15
1830.41
1750.88
2108.32
2145.13
2291.19
2289.52
2410.82
1188.03
1313.26
3209.35
2719.11
3923.83
2769.77
1810.91
1596.87
1732.96
1419.03
1428.88
1500.97
1602.95
2003.21
1456.20
1459.72
1214.01
635.14
961.77
1189.84
748.07
1761.30
1773.99
2291.10
2499.29
3155.16
3760.59
3556.01
2674.27
2163.18
1622.95
682.51
1291.93
1324.64
1431.92
1973.25
2510.19
2135.81
1472.94
1443.66
1309.72
1367.77
1141.27
1399.73
1242.49
1597.45
1216.31
1571.26
2346.54
2124.01
1073.46
735.47
521.46
807.01
2216.29
2213.38
1494.62
1476.23
1098.16
1645.74
1742.44
1796.98
1850.92
1514.56
694.87
690.26
357.25
637.09
468.62
496.15
732.78
1520.80
1411.18
1407.12
1268.94
1465.88
1508.55
1541.16
1400.35
1496.39
1430.37
936.32
1238.92
680.84
1052.49
1612.42
1965.43
1877.28
2256.27
2432.92
2474.13
2137.38
1892.53
1887.03
1293.66
1601.38
1381.17
1293.94
572.18
458.89
652.10
912.59
689.80
793.08
1722.89
1487.86
2240.34
2392.68
1502.86
1470.25
1491.22
1520.40
1443.09
1797.98
1546.30
2447.34
1216.22
727.66
560.94
921.57
1487.65
2801.88
3353.31
3644.54
4267.32
4238.36
4201.72
3282.42
1508.94
2125.88
2882.41
2718.25
1748.96
643.46
555.21
744.31
548.76
2976.94
2618.42
2686.46
3409.33
2427.93
1516.74
1525.76
1769.93
1627.89
1314.80
1222.72
1935.60
1724.87
2619.43
2173.37
1174.08
535.67
1798.27
2812.04
3072.76
2078.58
1330.44
2945.94
1927.81
2512.92
2500.82
2438.91
1513.83
837.40
402.28
1234.25
1559.83
487.29
2419.27
1446.17
1332.52
1334.41
1370.46
1414.85
1286.44
1404.22
1505.67
1814.14
1580.92
3120.58
787.41
879.89
1477.59
1678.91
736.80
1080.17
2571.62
3364.51
2983.59
2208.76
3822.30
1805.30
1383.70
1262.32
1352.75
1450.98
513.39
583.39
885.76
1626.63
1814.37
2685.11
1521.98
1781.68
2285.09
2055.66
1453.95
1421.41
1438.04
1420.67
1742.92
1662.22
787.64
649.65
1072.85
1433.29
927.02
540.37
720.10
2160.80
2173.11
1957.38
1514.16
1720.78
1761.04
1704.82
1264.12
1898.38
1572.33
1163.38
1414.79
1182.41
856.21
674.03
667.21
1162.77
1202.64
1144.56
1380.01
1364.61
1294.00
1487.34
1463.88
1416.25
1196.83
1356.20
874.48
785.72
1092.37
1372.48
1343.06
1510.42
1567.21
1391.13
1202.60
1470.29
1126.23
1975.51
2540.48
2833.97
2285.32
1713.56
959.61
1080.95
822.96
630.15
501.16
764.13
1049.39
1728.50
1754.45
2029.93
1462.66
1289.99
2340.80
3003.33
2314.12
1544.42
1345.56
630.20
415.54
837.87
1417.66
1495.91
1317.80
858.93
1075.82
1302.92
1590.66
1503.33
1690.09
1758.43
1666.67
1759.06
1445.65
1382.73
803.66
764.26
683.94
1286.24
921.59
1048.48
1485.24
1762.04
1930.27
1720.25
1499.37
1292.19
1690.75
2117.69
1934.69
1395.90
893.51
761.13
1074.86
1431.50
1474.94
1723.90
1615.65
2384.81
2000.06
1657.37
1221.44
1583.27
1342.81
1452.82
1470.70
1306.90
1415.46
588.20
582.77
503.28
1151.13
1479.94
1895.73
1484.92
1282.86
1642.22
1697.05
1691.43
1468.72
1376.07
1337.06
1489.38
1441.94
1837.47
1646.77
1483.76
836.54
925.99
865.17
635.22
1342.04
1696.83
1341.67
1866.45
1626.97
1538.41
1477.71
1380.54
1493.95
1812.01
1202.10
1268.21
2243.66
2308.43
2261.68
2225.24
1205.16
1615.43
1997.97
2678.16
2884.35
1869.13
1414.60
1551.62
1340.22
1446.73
1939.41
473.26
936.38
1470.24
860.02
908.04
1665.71
2713.13
4289.37
3219.57
2220.93
2429.31
1538.84
1656.73
1613.41
1713.65
1891.46
2358.29
1668.90
770.46
251.00
1100.96
2299.11
2056.92
1708.46
1758.75
1605.74
1280.81
1360.05
1486.46
1468.64
1575.01
1509.92
2625.32
677.42
995.22
676.21
608.77
438.82
1332.12
1400.01
2563.93
2828.92
2921.50
2472.57
1263.13
1467.21
1455.59
1372.91
1480.03
1633.35
1191.67
841.08
655.79
578.73
2577.50
619.12
1060.89
1301.89
1679.23
2310.40
1431.32
1405.68
1788.65
1721.56
1721.58
3006.52
1709.64
759.73
633.15
796.89
826.18
792.63
729.79
1431.50
1620.65
2179.02
3405.53
2153.47
2881.23
2918.80
1943.87
1482.75
1485.06
641.12
524.65
414.95
784.93
3419.39
2227.25
1782.62
1685.61
1513.62
1415.92
2709.38
4049.09
3192.92
1711.59
1583.91
2677.10
1388.14
1098.00
1903.67
2089.36
1851.77
1394.99
678.71
876.44
1373.72
1413.44
1734.25
1467.45
1915.85
1741.02
1481.50
1450.89
1420.26
1592.13
1058.74
1644.45
1074.52
829.22
524.60
547.79
1300.65
1468.25
1286.01
1298.91
1352.74
1371.42
1515.35
1506.78
1409.15
1463.34
738.57
716.57
679.45
893.05
1109.66
940.11
987.28
1964.50
2474.84
2637.21
2086.16
2154.00
2563.04
3057.64
1977.11
1769.83
1728.78
1391.33
486.13
2392.76
2989.54
2580.50
1758.89
771.80
1470.20
1495.49
1163.27
1233.37
1205.96
1809.13
1891.55
1974.44
1914.77
1475.44
617.37
596.95
613.04
1095.35
811.44
876.97
1340.37
1894.76
2072.49
1725.95
1305.83
1810.21
1471.48
1506.54
1265.17
1621.03
1234.15
1124.97
1196.77
961.59
597.21
839.24
2690.47
4251.57
2601.17
1464.43
1641.97
2176.83
2042.90
1664.42
1461.35
1678.54
1195.63
1169.22
1390.28
1799.20
1546.22
1330.86
529.67
1488.94
1759.83
1384.85
1629.86
1460.43
1664.98
1893.30
1387.72
1439.57
1481.39
1524.16
1120.41
1457.86
1383.48
1476.42
879.51
676.95
1181.49
1528.22
1586.28
2292.05
2319.39
1704.32
1527.16
1372.32
1560.07
1416.25
743.18
684.22
933.92
479.43
1043.82
1337.79
1222.84
2116.69
1994.60
2447.73
1723.88
1460.14
1546.58
1617.09
1508.21
1534.22
1500.37
782.35
717.62
682.06
1169.16
1754.71
1472.25
1563.23
1561.94
1798.44
1744.42
1407.77
1544.03
1565.43
1241.71
1792.17
1422.85
2073.95
2633.99
2488.48
1759.65
694.68
482.17
775.96
1339.50
1596.34
1819.86
1708.30
1203.22
1519.27
1409.84
1594.95
1204.71
1567.06
1216.81
1542.28
1071.44
1951.71
741.55
1339.72
931.65
1385.00
1932.19
2055.88
1418.64
1243.03
1436.88
1587.70
1914.67
1527.66
1397.81
779.87
679.50
513.39
916.34
1436.53
1551.70
911.41
1746.90
2968.54
2667.74
2275.32
2391.70
2048.26
1700.95
1589.49
1334.63
1724.65
1813.93
1797.58
2594.32
761.35
1079.61
1697.00
1384.84
1299.22
1211.95
1406.52
1175.77
1470.70
1399.46
3110.00
1635.34
1963.28
1856.78
1398.62
1525.01
1627.68
1367.71
788.59
1027.39
1408.32
3147.84
1886.09
1510.49
1410.25
1503.47
1396.73
2450.77
2548.14
1527.28
757.74
638.14
3704.53
2083.75
2280.51
1837.34
991.51
1556.85
1417.31
1352.72
1427.23
1325.90
1485.00
4063.63
1538.60
1472.81
1456.88
938.63
811.75
866.36
887.03
778.58
853.39
1399.31
2573.63
2004.63
2546.96
1845.26
1935.36
2111.63
3270.95
4213.95
4212.79
2084.37
1013.92
1348.97
798.97
773.92
1031.13
705.58
1446.75
1443.26
1663.28
2561.31
3102.78
2192.68
1582.85
1434.83
1724.40
1795.43
1428.17
636.37
752.49
1499.25
1337.87
1327.59
572.70
1625.52
3098.27
3283.33
2584.03
1870.94
1581.72
1690.50
1387.69
1582.79
1988.48
920.27
824.79
771.40
624.78
525.02
612.90
1310.48
1392.86
1500.25
1357.82
1460.79
1466.25
1645.56
1723.29
1424.96
1673.89
1118.77
739.18
541.35
743.87
905.06
607.11
719.14
1197.72
1380.58
1552.23
1365.84
1402.23
1577.46
1726.97
1556.24
1860.37
2440.64
2359.18
1514.80
976.12
1687.89
1690.35
972.43
822.55
1315.66
1246.70
1258.84
1571.95
2254.87
1902.95
1589.01
1623.68
1425.92
1466.15
810.22
770.38
1237.14
1952.12
2184.29
1638.96
1660.62
2057.86
1836.73
1860.26
1234.52
1445.24
1378.07
1460.93
1412.89
1635.68
1287.59
1517.46
1605.79
1386.01
981.04
708.28
540.56
1725.47
1444.88
1621.50
1605.33
1820.01
1392.78
1417.38
1273.86
1744.06
1764.11
1193.46
1260.07
1480.87
1497.33
1747.45
1417.92
1335.29
1695.18
1421.92
1476.35
1961.76
1424.58
1600.61
1472.43
1461.52
1421.45
1485.94
714.71
1615.86
1994.48
1603.30
1233.69
893.26
1300.58
1524.89
1499.84
1804.28
2084.99
1757.95
1658.03
1560.29
1665.84
2369.00
1440.19
873.76
460.74
404.76
567.20
822.42
1333.52
3537.01
4245.47
3516.75
1823.93
1477.46
2594.67
2232.65
1467.14
1746.74
2002.02
1532.00
1577.21
1306.77
803.92
952.34
705.69
1384.83
2578.33
2257.38
1998.93
1431.24
1236.57
2762.46
1351.66
1485.86
1801.94
1798.15
1080.18
912.79
734.36
853.17
1761.74
2264.81
2803.89
2461.55
1729.40
1814.22
1199.12
1672.84
1312.06
1398.16
1354.24
1680.40
1968.08
4258.74
4244.31
4252.75
3605.59
1182.89
1454.52
3346.17
4332.08
4192.70
4186.96
4251.09
4179.53
2587.42
1697.19
1703.13
1499.62
1336.73
1005.14
842.74
1108.19
1480.21
2308.68
2924.25
2192.61
2562.36
2161.48
1466.65
1640.83
1546.57
1332.48
1582.13
1825.05
1732.69
2612.71
1487.24
1618.76
1420.13
785.90
640.79
1212.05
1289.35
1176.75
1476.79
1204.65
4235.92
1496.98
1633.21
1822.66
1577.53
1313.80
1373.14
1355.53
519.25
1103.45
1923.64
3408.98
2215.63
2267.07
2264.72
2134.56
2385.15
2249.76
1807.04
1281.30
1515.45
1368.06
1348.62
1170.02
1008.84
534.67
673.53
950.48
806.33
1100.96
1272.03
1361.50
2001.07
2675.96
1192.25
1423.89
1580.20
1859.60
1646.96
692.44
509.12
678.69
892.15
1292.22
860.18
803.55
2344.58
1946.19
1582.44
1094.57
1441.47
1393.08
1711.39
1444.57
1846.27
1415.31
1196.06
1115.58
800.36
583.32
582.07
1067.87
2261.44
1862.80
1589.18
1314.17
1678.89
2011.49
1901.54
1692.87
1554.93
1515.79
761.57
855.62
1459.56
1418.18
1508.54
1184.33
1944.55
2731.02
2127.09
2358.52
1756.62
1081.20
1333.76
1465.97
2547.72
2441.05
1645.42
660.48
611.10
1034.21
1096.52
952.28
949.64
1238.88
1501.33
1619.17
1411.79
1602.02
2252.11
2815.88
1750.30
1449.10
1886.95
4035.56
4197.94
3363.14
1336.93
819.99
801.60
916.47
1280.21
1670.41
1805.91
1539.05
1409.59
1691.09
1376.43
1475.16
1339.99
1458.61
1066.23
777.97
612.75
1015.48
1182.22
755.54
563.22
1628.92
1621.80
1773.23
2108.67
1964.95
1450.07
1569.37
1429.48
1977.70
1748.11
710.78
1032.98
960.84
1919.71
2764.74
3042.48
2839.37
3184.22
3710.31
3764.87
2117.40
1418.74
1366.99
2599.18
2718.81
2886.38
4189.25
3680.08
2911.11
1220.55
654.23
581.36
759.07
1270.11
1507.54
1683.85
1468.16
1869.65
2585.19
2850.73
2832.20
2410.33
2358.62
1134.82
624.80
1193.09
740.95
995.70
1851.74
1980.61
2442.63
1655.72
1553.44
1491.85
1500.92
1921.58
2167.20
2848.55
3193.67
2177.90
727.21
1392.50
2568.16
3216.08
2757.86
2854.81
3513.48
3516.16
3136.88
2511.47
1871.71
1395.72
1989.99
1748.52
1852.97
2121.14
1590.11
1233.68
632.36
880.18
834.71
2053.68
492.77
1302.29
2251.94
2673.53
2370.00
1472.17
1946.52
2043.43
2477.63
3481.08
3767.94
2370.10
591.44
641.53
847.86
719.44
2289.51
2627.32
2461.84
1441.73
1440.81
2666.36
1272.49
1383.24
1510.36
1779.57
2006.23
2097.75
1821.77
1713.05
1819.93
2489.60
2661.47
1447.58
710.29
1505.71
1396.94
1459.07
1459.27
1755.55
1726.99
1497.83
1652.36
2815.00
1027.56
1444.18
1487.47
1258.31
862.92
762.09
723.52
2007.22
2432.18
1870.09
3579.59
1364.48
1253.24
1504.27
1523.20
1559.03
1594.59
778.65
545.54
595.46
1008.91
3252.01
732.93
508.11
1853.40
2036.34
2526.42
1540.05
1454.10
1576.28
1566.64
1931.77
3280.51
1952.45
1360.54
1123.18
752.32
759.08
1805.88
1325.77
973.17
1428.71
1295.56
4240.14
1409.60
1766.66
1432.09
1433.28
1283.74
1392.86
1687.08
1480.22
1016.26
630.61
1193.71
984.02
2291.80
3467.39
2588.55
1641.14
1168.63
1253.61
1438.46
1470.84
1243.56
1563.23
1646.69
1453.13
1690.40
1456.41
457.41
999.70
1473.62
1921.30
2514.49
2415.50
2181.47
1898.18
1483.09
1362.98
1449.20
1479.01
1671.01
1513.66
1132.45
1257.95
1333.24
1524.75
1257.70
1936.44
2750.61
3038.44
2027.47
1867.67
1240.63
1532.09
1391.83
1590.00
1436.07
1635.87
881.22
873.52
969.97
808.97
584.59
525.49
937.30
2152.75
1907.12
2421.47
2200.03
1339.84
1302.96
1687.67
1886.89
1818.27
1436.24
843.45
864.48
1084.66
1257.72
1067.61
489.47
500.64
1416.75
1349.64
1482.13
1552.17
2282.25
2691.78
2459.62
2118.57
1536.71
1439.15
568.04
939.04
876.89
1079.29
977.63
1617.86
1876.78
1448.06
1441.41
1494.23
1395.38
1432.62
2234.32
2123.65
1757.59
1448.15
1009.08
653.85
681.03
618.36
848.74
1270.55
864.36
1914.15
2215.37
2448.81
1700.30
1593.94
1740.79
1328.83
1189.15
1572.53
1284.45
564.65
1507.23
1443.72
897.66
851.65
1271.98
712.99
1476.33
1242.59
1542.57
1765.85
1775.13
1423.14
1322.83
1524.35
1241.40
1568.02
652.70
635.65
577.30
981.11
1122.16
1067.27
716.45
1676.87
2154.41
2964.49
2614.68
2674.74
1815.32
1592.50
1693.00
1838.47
1532.80
656.67
655.46
527.78
519.64
755.85
715.62
1936.75
1618.57
1649.22
1394.06
1988.50
1989.44
1533.13
1999.15
2125.63
1602.02
1916.58
1897.51
1542.84
1461.96
930.88
775.75
1116.83
1372.42
1493.13
1452.10
1530.55
1701.13
1623.30
1392.57
2886.52
1579.71
1555.01
603.40
461.69
705.91
969.15
977.79
920.89
979.58
1542.78
1924.22
1404.09
1288.93
2497.10
3082.94
2386.20
2032.72
1496.87
1111.56
775.42
818.21
2311.93
1276.56
942.24
931.30
2069.36
2249.49
2135.94
2904.27
3372.25
3259.74
2940.21
2851.83
2350.07
2217.04
1565.31
916.97
696.98
660.13
1209.42
1941.72
1247.64
1616.56
3517.52
2394.91
1554.10
1236.63
1334.58
1320.62
1489.66
1204.17
1558.77
734.84
718.63
2814.58
814.31
524.02
1257.53
2254.67
1823.13
1521.60
1449.75
1472.97
2101.42
2373.21
3426.00
2512.85
2743.11
2380.72
1233.30
1296.75
1610.35
948.18
562.49
585.45
1382.98
4206.39
1520.48
1435.80
1461.95
1366.89
1400.90
1471.99
1434.11
1267.92
788.91
729.68
2938.19
803.38
1041.35
883.68
703.74
1397.29
2232.08
4215.28
4197.71
3065.07
2360.99
2423.16
1539.94
1600.93
2002.32
2112.33
1556.43
557.16
868.01
822.19
1003.12
650.86
1439.29
1124.51
1442.10
1355.06
1324.96
1614.64
1898.62
1417.06
1664.96
1853.50
984.55
786.85
1026.15
937.05
1429.61
1007.02
1244.20
1424.80
1515.59
2053.86
1646.81
1416.12
1917.98
1842.07
1796.07
2096.14
2227.23
2132.31
2633.47
2134.44
1662.76
957.49
822.69
1499.43
1636.89
1260.67
1423.15
1465.77
1369.24
1372.45
1460.58
1374.89
1506.37
874.38
878.86
963.62
1403.47
1000.61
769.46
876.57
1692.64
1249.74
1513.38
979.35
1743.88
1698.17
1733.54
1406.28
1495.88
1160.43
669.17
638.06
635.77
740.07
736.43
771.72
1447.14
1879.20
1803.90
1328.13
1512.64
1373.16
1989.32
2290.90
2171.87
1688.64
1131.31
812.96
1349.97
1709.74
1788.07
1253.28
856.01
1126.20
1683.64
1417.98
1465.47
1117.56
1575.72
2060.85
2549.89
2423.82
2221.73
939.42
590.81
980.47
1258.83
1075.87
513.58
1105.51
1579.90
1281.28
1460.20
1652.92
1984.66
1453.00
1619.07
1421.77
1500.62
1596.20
1441.70
1064.13
998.62
1244.08
984.33
837.11
1205.06
1861.44
1980.77
2020.91
1599.00
1848.80
1937.31
1434.53
1538.44
1483.51
798.63
619.05
772.29
728.50
741.60
685.36
878.58
1719.27
1706.65
1960.84
1829.74
1413.54
1324.16
1324.25
1545.38
1457.15
2710.39
2794.47
2811.68
1882.79
1538.49
1061.43
666.03
626.29
1837.41
2239.37
2276.60
1346.08
1421.57
1660.84
1547.49
1515.71
1613.54
1222.73
542.49
687.52
1454.88
2504.35
2203.73
1119.85
2840.00
1608.88
1713.71
1345.02
1182.06
1279.73
1639.14
1549.46
1857.89
1980.09
1790.89
1823.22
694.74
1013.64
1508.39
1580.23
1019.09
1319.08
1407.86
1833.12
1448.82
1341.18
2530.51
1620.57
1479.71
1368.42
1424.32
1273.95
723.57
692.36
663.50
552.23
878.43
1788.22
1569.97
1330.93
1493.49
1350.27
1527.44
1493.38
1381.22
1495.90
1485.83
1459.71
2436.11
1200.96
1037.86
962.77
1939.03
2835.53
3277.15
2966.96
2439.54
1684.10
1124.54
3523.39
1347.28
1251.69
1521.44
1314.14
1060.51
1058.13
664.21
575.79
573.22
381.21
3328.93
1481.21
1677.93
2036.47
1687.58
1644.67
1535.57
1444.17
1767.47
1932.78
1904.95
2876.12
1642.52
1161.03
614.11
522.37
680.85
1426.00
2257.21
1612.19
1793.48
1200.92
3382.49
1523.12
1633.83
1414.92
1672.00
1758.23
1591.50
675.09
661.74
801.67
1073.17
1311.21
1732.54
1731.48
1650.81
1613.67
1458.17
1593.85
2165.86
2277.19
2351.90
1803.98
786.49
969.63
938.82
910.20
870.50
559.68
917.25
1328.10
1485.33
1877.21
1429.75
1193.73
1702.45
1859.76
2201.92
2046.10
1472.53
559.56
794.02
548.34
907.19
824.52
792.45
974.51
1354.00
1331.23
1547.90
1185.15
1939.15
3146.78
3567.69
2421.80
1667.05
1449.81
2282.27
2565.74
2145.92
1833.92
1829.85
1705.51
1470.89
1579.30
2024.27
1918.20
1513.24
2217.63
2160.71
1866.94
1512.07
1557.88
904.90
647.53
669.32
800.36
1262.94
940.44
1190.07
1725.04
1620.96
1953.17
1827.89
1631.76
1541.87
1449.90
1730.94
1622.81
1909.72
1751.06
1388.69
1259.16
1096.89
1162.25
1422.78
1171.47
1837.51
1525.63
1601.17
1371.53
1724.68
2102.66
2241.96
1654.22
1589.53
1775.61
1002.40
705.78
670.99
804.42
579.15
647.83
1426.35
1462.86
1605.82
1614.57
1439.91
2354.29
2585.04
2021.97
1539.90
1546.88
1189.18
656.62
1053.63
2246.66
3045.47
2991.53
1966.11
1572.85
1738.61
1693.59
1771.02
1372.55
1824.22
1912.16
2273.90
2074.08
1820.73
721.81
1924.64
2643.25
1994.05
1133.16
1072.65
1426.28
1727.43
1409.81
1648.58
1615.83
2049.12
1815.99
1659.47
1784.94
1586.47
1673.21
1034.33
1068.04
746.49
708.90
1017.62
1258.38
2059.34
3684.55
4236.80
3965.28
3347.45
3170.32
3076.76
2257.07
1641.21
1745.82
2121.25
2138.14
1822.93
1479.84
769.33
1283.66
1070.22
1738.26
1561.60
1531.38
1635.39
1388.83
1794.50
2253.02
1646.64
1401.58
2672.66
1312.10
1394.12
648.48
594.99
681.49
847.25
1130.02
1905.71
1836.50
1563.83
1893.54
1766.38
1630.93
1543.79
1911.62
2359.68
2145.71
1741.81
1086.06
962.41
740.47
2401.38
625.08
1410.57
1481.95
1517.24
1811.99
1594.21
1375.35
1508.79
1402.90
1702.57
2619.06
956.15
601.13
848.55
1294.31
978.23
639.24
928.87
1877.30
2532.82
2547.64
2875.38
2046.42
2493.22
2812.24
2983.58
2863.38
1560.45
1480.31
2362.95
2224.27
1202.03
3441.74
1809.77
2127.32
2232.00
1891.55
1901.63
1422.75
1253.26
1600.57
1762.60
1823.95
3491.64
1982.59
845.38
1015.77
1085.47
724.32
599.59
508.69
1177.42
1547.88
1436.24
4175.79
1322.05
1714.88
1885.99
1551.54
1986.15
1935.03
1870.17
1740.27
1915.09
1540.82
3017.86
731.80
857.20
1180.22
1455.15
1228.06
1534.90
1569.17
1602.57
1267.45
1847.00
1848.52
1655.72
709.36
814.91
876.47
1351.36
1578.77
1509.07
1474.52
2635.16
2845.19
2983.68
2125.54
1507.53
1417.36
1379.80
1305.29
1539.33
1726.16
1976.87
1379.98
776.13
1408.71
1744.65
1305.68
1539.04
1960.57
1980.81
1825.19
1421.99
1387.81
1459.01
1777.15
1666.58
1832.54
1194.98
770.57
680.75
757.29
1425.11
915.14
681.27
1461.89
1426.13
1534.74
1782.82
2123.24
2993.18
2277.76
1705.34
1671.62
1524.26
728.48
828.33
554.79
1110.53
1354.56
1231.81
1099.66
1630.37
1581.95
1688.75
1376.34
1574.41
1551.91
1619.74
1583.24
1824.37
1560.31
983.98
940.18
1408.81
941.66
1341.79
1193.62
1301.01
1770.99
1427.56
1623.39
1428.62
1479.32
1430.96
1758.79
1630.68
1613.06
1114.76
739.15
779.19
638.07
927.73
675.02
816.02
1339.90
1307.69
1314.10
1407.17
1364.01
1304.84
1253.48
1560.76
1862.60
1762.16
968.96
590.26
724.85
586.19
512.81
1288.95
2360.92
4090.95
4163.58
3318.03
1468.94
1215.93
1391.71
1499.56
1469.19
1603.92
1663.98
739.39
604.55
1407.56
2231.02
1875.66
1710.72
1346.28
1538.44
2018.51
1549.83
1324.75
2843.40
2674.27
2629.30
2131.52
1454.70
954.06
1005.96
811.86
581.90
1044.71
1240.43
1769.89
2016.66
2267.85
2262.89
1448.81
1244.41
1399.56
1365.00
1548.27
1746.42
1592.11
716.15
661.37
673.63
1050.87
801.46
922.79
1196.71
1592.68
1691.50
1648.14
1290.44
1443.34
1435.57
1374.15
1854.42
1602.70
1827.11
2152.83
2162.68
2123.15
1691.72
1536.84
1435.13
1282.02
1309.69
3166.31
1529.50
1607.93
1705.78
1607.39
2384.65
3343.45
3355.95
1519.76
1011.42
1881.28
2344.06
644.05
781.44
722.90
1772.54
1837.31
1328.93
1576.02
1294.25
1414.63
1656.65
3172.82
1333.29
2091.50
2515.29
2435.46
2035.63
1749.38
830.17
1147.36
2135.03
2438.68
3219.52
1305.74
1304.89
1787.17
1891.31
1500.16
1554.24
1374.26
1396.73
1001.85
592.15
2296.51
941.30
780.45
818.11
1371.62
2110.21
1847.18
1615.07
1295.69
1434.13
1389.00
3332.43
1471.79
1506.99
1272.24
1170.43
1004.83
1023.98
1002.27
1125.92
846.87
1734.17
3043.33
2074.73
1754.13
2042.03
2465.47
2394.20
1792.60
1385.49
1357.00
1422.92
1631.58
4156.76
949.03
872.61
918.28
771.87
1197.74
1264.86
1283.29
1269.64
1451.99
1719.37
3582.35
1461.31
1631.11
1948.93
1597.72
1190.50
1007.08
1048.14
1002.42
847.62
896.77
1627.71
2846.66
3404.66
2650.71
2222.67
1848.67
1732.90
2027.99
2291.90
2356.29
1882.81
1700.48
1166.96
689.32
525.19
773.88
2370.35
4036.57
4233.09
4197.64
4241.98
2533.34
1564.80
1785.58
2165.99
1960.73
1624.72
1353.80
961.59
913.02
1087.25
694.73
752.47
1823.21
2340.30
2000.58
2042.79
2302.54
1869.58
1805.20
1553.52
1694.05
1655.11
1463.76
1702.98
1713.22
1725.36
949.51
784.81
1198.11
1503.57
1470.07
1383.78
1254.30
1524.67
1338.29
1525.81
1559.52
1505.42
1532.26
1936.07
2621.19
1763.61
1068.90
733.06
836.86
1376.85
1883.44
1696.06
1337.27
1339.07
1465.79
1633.11
1704.31
1984.77
1722.51
646.07
1002.48
985.30
632.85
977.11
1352.49
1237.38
1559.39
1395.73
1249.76
1426.04
1171.85
1397.63
2164.85
2489.15
2497.02
1993.87
597.46
546.21
710.46
920.96
1074.49
1284.89
2249.71
2933.44
2562.57
2600.43
1763.95
1417.72
1543.17
1385.17
1431.10
1405.08
1324.86
552.37
944.89
1266.83
753.33
521.02
888.81
1354.31
1405.07
1672.94
1687.20
1494.46
1268.78
1562.51
1709.33
1758.35
1662.16
780.87
924.88
748.62
751.96
402.21
937.78
965.80
2267.64
2055.59
1644.93
1480.68
2073.02
2542.66
1872.11
1560.78
1762.97
2377.96
2404.19
1487.30
727.19
1211.29
1781.09
1057.70
1111.01
1411.07
1279.57
1523.56
1594.16
1475.15
1735.23
1415.25
1383.46
1613.84
1507.18
1244.62
1149.84
903.11
801.45
870.05
998.97
2496.21
2449.93
2340.94
1901.96
1424.29
1475.29
1464.89
1433.77
1582.02
1723.64
738.93
2429.76
1020.44
1332.76
1171.26
778.13
630.85
1217.22
1574.84
1485.58
1397.30
1434.97
1889.82
1630.05
1697.21
2034.76
2231.93
2272.24
1646.01
1018.90
728.73
617.72
619.56
2408.30
1888.44
1977.15
1355.13
1291.75
1232.10
1470.59
1331.91
1667.77
1301.11
1229.79
1746.58
1041.79
1284.52
1197.95
742.64
1053.65
1211.30
1578.46
1691.63
1526.50
1206.80
2980.68
1778.84
1591.18
1499.77
1407.24
1029.51
1241.71
1289.46
1666.14
1470.88
1555.64
2888.17
2977.55
2728.60
1784.78
1304.76
1683.28
2168.99
1763.27
1404.14
1501.04
1538.78
2888.43
1219.80
1571.40
2091.08
1964.23
909.89
1141.50
2151.96
2541.90
1614.29
1490.87
4192.11
1492.95
1652.84
1959.48
1802.33
1958.98
1008.33
