1426.02
1523.46
1427.06
1346.94
1401.08
523.38
687.26
496.71
581.60
692.37
750.16
710.69
2604.02
1276.52
1498.30
1219.82
1433.67
1373.88
1412.48
1274.66
1412.35
869.57
868.30
2206.81
1053.71
1069.74
1095.00
1028.79
1883.28
1863.76
2092.87
1661.72
1526.47
1561.94
1611.31
1563.45
1240.40
1288.16
698.49
609.24
662.47
731.83
566.70
647.57
712.76
1342.57
1739.90
1403.75
1150.84
1340.14
1441.56
1733.89
1734.69
1982.74
1983.49
1645.40
1644.20
2448.61
2428.71
2230.56
1909.10
1376.34
1502.40
1123.21
1328.44
2514.45
2514.34
2022.64
1887.88
1197.99
1320.31
922.10
1129.16
1111.17
1048.42
660.10
636.20
521.87
1151.05
1735.80
1523.53
1113.17
1086.42
1270.74
1294.77
1368.23
1426.01
1400.98
1020.94
1265.21
1742.24
980.85
1027.67
1283.83
989.55
1662.51
1558.21
1560.70
1031.83
1073.38
1305.55
1995.74
1445.42
1634.37
1463.13
660.78
637.94
608.08
455.63
712.56
675.28
665.48
2007.11
1194.24
1293.33
1080.16
1424.59
1484.98
1478.55
1359.76
1350.87
964.48
974.35
1842.66
860.12
898.66
790.12
964.87
1319.40
1272.32
1493.31
1139.21
1408.40
1552.59
2830.21
1308.04
1543.76
1430.71
602.55
600.91
647.83
801.12
653.51
585.19
556.83
1445.05
1834.51
1208.14
1104.12
1203.75
1404.87
1152.54
1454.74
1433.96
1385.88
766.47
961.88
1485.01
728.58
822.61
904.20
796.56
1797.89
1486.10
1508.56
1169.10
1540.54
1326.36
1437.26
1423.01
1445.07
810.87
689.53
877.22
718.48
503.37
579.87
580.52
1367.53
1677.07
2890.37
2045.08
1547.81
1499.17
1714.03
2009.77
2612.02
2874.43
2321.35
1778.54
965.67
3862.11
2196.89
2385.99
2645.26
1393.74
1397.44
1223.49
1126.85
1151.56
1262.64
1267.68
4147.34
1543.44
1522.19
461.46
644.28
697.87
746.79
746.97
700.54
888.48
1071.52
1241.01
1419.54
1055.26
1458.63
1551.65
1457.57
1480.66
1684.21
1056.76
932.83
827.19
1075.71
992.96
992.88
1055.11
1383.06
1718.03
1602.43
1455.46
1330.23
1617.87
1329.52
1500.78
1475.11
1351.62
493.75
323.06
494.59
866.72
685.84
900.07
555.08
1307.75
1332.49
3058.28
1176.95
1088.83
1462.91
1448.15
1703.63
1418.67
1581.74
1095.70
920.71
703.40
2936.59
1114.16
1046.73
1001.26
1526.08
1562.92
1497.36
1151.82
1406.04
1254.03
1387.06
4055.58
1453.54
819.21
706.05
598.21
470.36
668.66
729.84
686.75
1354.05
1422.82
1470.95
1440.51
1456.80
1342.12
1497.56
1615.55
1523.76
1625.08
910.93
991.05
1224.98
1057.76
1604.61
996.67
1148.75
1482.40
1483.53
1386.05
1028.10
1376.99
1429.35
1407.45
1470.81
1675.53
1233.44
762.71
448.16
587.54
684.65
630.67
590.75
628.11
1258.91
1461.17
1299.22
1282.98
1286.64
1676.48
2155.37
2529.32
2520.79
2433.48
1906.20
1296.38
935.84
928.97
1445.73
1964.37
2989.79
2835.82
1629.02
1159.52
1702.21
1917.07
1416.05
1397.06
1854.75
2381.70
2398.41
2042.02
1542.37
1440.12
1077.82
737.59
579.00
1364.98
1200.27
1308.10
1220.96
1282.06
1347.08
1706.04
1680.52
1581.03
1539.56
1421.89
1253.95
1364.89
1236.40
1289.85
1026.56
817.19
1463.93
1382.82
1423.38
1058.11
1463.70
1304.68
1593.26
1597.69
1785.75
1099.26
852.08
943.64
482.78
459.99
671.69
521.36
1208.24
1207.17
1439.30
1427.73
1389.30
1439.87
1438.86
1312.36
1321.00
1181.40
668.53
848.76
1081.89
1414.25
1609.89
850.88
973.17
1429.12
1683.90
1348.91
1393.81
1403.68
1764.10
1546.64
1642.47
1633.54
1442.11
913.17
848.72
667.04
605.22
921.41
1078.76
669.59
1360.96
1282.55
1735.30
1366.62
1378.20
1815.64
1467.45
1530.40
1770.00
1429.28
1195.44
997.61
755.89
1157.13
1168.63
1162.98
1482.01
1416.99
1462.19
1353.76
1393.42
1484.91
1509.85
1389.01
2030.77
1413.27
584.04
649.04
580.13
477.90
567.46
625.83
595.43
1208.23
1440.93
2470.03
1324.64
1407.08
1625.03
1451.71
1624.55
1491.64
1389.52
792.32
1005.82
801.22
733.91
953.11
1173.11
989.81
1576.37
1814.59
1452.54
1238.48
1921.42
1940.20
1710.28
1567.43
1882.12
670.16
649.52
511.41
873.35
695.74
526.33
847.65
1352.20
1215.39
1382.92
1029.08
1526.85
1338.68
1714.72
1614.91
1685.83
1864.47
1369.58
1174.23
1237.73
1280.71
2061.56
2307.69
1850.12
1759.51
1465.62
1320.03
1199.35
1484.29
1266.04
1234.46
1474.34
1324.04
1352.12
539.50
730.65
900.20
840.85
717.96
854.03
1226.94
1511.85
1491.22
1443.49
1308.35
1453.83
1440.70
1235.35
1353.99
1495.78
728.75
528.81
541.06
936.13
924.75
1472.47
1118.87
1737.38
1658.17
1382.90
1244.39
1313.14
1809.44
1703.56
1469.99
1454.55
1860.73
552.86
696.90
1109.21
1315.87
1579.17
1469.42
1166.18
1584.97
1748.13
1613.06
1649.07
1321.66
1394.43
1580.98
1523.90
1396.26
1403.34
568.43
692.09
766.89
813.28
1408.67
650.35
830.16
1844.82
2357.08
2492.86
2288.67
1811.42
1433.36
1424.12
1417.06
3684.85
2041.06
2250.29
1631.50
870.15
708.54
784.59
950.67
1082.23
1465.83
1269.60
1445.56
1379.22
1470.88
1425.54
1419.70
1496.64
1366.68
1410.49
1084.57
710.86
849.24
538.41
771.41
873.09
1969.83
1755.33
1537.93
1057.91
1432.61
1434.30
1519.25
1454.22
1519.29
1451.98
593.87
586.50
423.05
475.34
597.59
628.05
650.44
1375.02
1432.34
1246.12
1066.50
1220.59
1579.57
1404.01
1431.44
1552.17
894.08
767.40
573.92
821.50
803.23
971.88
1196.53
1598.34
1676.65
1674.08
1260.58
1165.15
1579.21
1520.53
1902.20
2408.64
2071.59
1854.45
1179.75
902.13
879.99
755.79
619.56
628.63
1173.78
1500.28
1534.80
1348.71
4082.10
1432.15
1376.87
1404.65
1470.50
1401.86
452.26
568.13
627.18
713.04
700.68
928.25
807.15
1623.26
1175.96
1366.95
1111.00
1350.18
1533.48
1667.11
1497.28
1542.71
934.25
1416.83
741.07
490.75
660.31
876.88
652.59
1176.21
1141.48
1370.78
1025.25
1327.09
1133.80
1499.45
1404.43
1523.26
1631.33
1026.72
1144.38
1045.02
915.93
1111.55
731.73
1094.35
1769.85
1845.04
1446.70
1276.78
1316.82
1633.90
1420.97
1505.76
1402.38
1339.17
566.56
754.21
643.19
699.13
696.16
761.98
1188.27
1613.74
1444.07
1409.14
1093.26
1456.40
1605.28
1482.06
1263.20
1393.21
1208.55
1798.03
2566.62
3018.79
2813.01
2310.49
1395.41
1773.05
1320.94
1676.17
2360.81
2013.32
1769.26
1549.24
1633.63
1936.75
1894.46
1165.01
1209.98
918.73
479.09
601.78
669.83
802.26
1597.13
1724.54
1516.37
1317.37
1431.66
1812.65
1393.52
1609.44
1399.70
1307.41
921.09
1095.04
1176.88
1120.90
1329.06
1352.26
1762.08
1987.87
1501.67
1447.14
1117.61
1252.03
1466.60
1257.07
1334.26
1409.85
870.64
1446.95
575.50
671.57
540.90
676.74
748.21
1323.14
1498.53
1228.98
1518.38
1626.59
2123.79
1665.80
1738.05
1636.64
1418.07
674.73
1113.46
840.62
910.29
872.43
922.77
1730.04
1485.49
1412.78
1491.68
1067.94
1224.22
1425.22
1421.08
1483.49
1468.59
1280.96
2139.79
928.85
1095.09
1201.44
850.40
1007.34
1109.72
1422.79
1183.04
1333.89
1299.09
3214.79
1429.75
1691.82
1769.38
1564.05
724.20
717.94
1176.39
2252.43
2528.41
2218.14
3064.36
1373.68
1172.97
1244.33
1426.93
1314.89
1260.13
1375.05
1620.97
1794.75
1585.62
3270.70
1162.53
707.16
429.15
735.02
488.86
542.49
1536.71
1430.73
1368.50
1330.57
4139.95
1430.25
1244.71
1376.64
1675.58
1435.95
1104.12
1147.15
979.65
1006.91
545.81
1428.06
984.03
1328.70
1556.30
2015.75
1934.98
1978.27
1914.89
1588.72
1296.22
1390.22
903.82
708.76
1180.45
1804.06
2706.71
3618.18
3142.35
2329.91
1435.28
1544.22
2387.80
3411.40
3212.77
2431.83
1513.98
1544.56
1368.03
621.79
661.02
872.77
446.13
746.46
578.43
873.83
1732.02
1778.11
1943.79
1459.34
1455.03
1818.59
2019.30
2870.69
2711.56
1805.34
1007.08
777.18
1085.65
1190.33
1236.30
1085.31
1118.36
1423.69
1712.09
1443.77
1142.81
1741.45
1509.91
2090.64
2481.40
2727.15
2493.71
1671.53
815.70
431.74
1047.73
811.59
1239.75
1384.97
1173.14
1500.92
1679.30
2370.66
2438.16
2141.68
1525.57
1453.26
1536.44
1198.95
850.16
1307.65
1667.64
713.81
1386.88
1905.41
3196.96
2976.02
2168.04
1314.86
1558.77
1418.24
1608.50
1832.54
1556.57
1310.94
652.77
694.12
668.23
601.86
818.89
1501.92
1206.11
1585.65
1692.19
1573.44
1231.35
1502.35
1253.04
1441.05
1136.81
1341.97
1411.31
594.59
760.17
405.46
711.65
904.54
778.78
1276.90
1373.53
1286.60
1207.52
2164.55
1408.55
1635.80
1752.19
1732.75
1507.75
1026.03
918.20
884.16
1273.36
1790.96
3216.55
2723.71
3351.72
2833.93
2040.89
1210.03
1360.04
1683.38
1495.14
1427.17
1395.98
4124.61
1830.98
1133.73
811.27
846.19
787.25
745.00
1038.86
1221.41
1212.51
1379.48
3295.77
1332.87
1354.20
1316.82
1300.23
1471.72
977.17
1042.96
829.22
640.34
678.93
3478.32
914.30
1629.76
1801.51
1906.36
1219.28
1242.62
1360.57
1451.94
1443.50
2164.23
2344.52
1354.13
1293.49
1324.45
1604.30
796.45
648.79
709.40
1919.12
2162.88
1598.73
1380.27
1242.33
1378.78
1376.87
1604.41
1301.58
1472.90
1231.72
1425.59
1880.72
1281.76
734.02
681.86
770.23
1515.94
1538.01
1647.82
1286.35
1604.39
2773.12
4108.47
4062.94
4097.36
4192.20
3232.38
843.67
4171.45
4128.98
4124.12
4161.22
4166.19
4142.17
2343.43
1439.11
1196.97
1394.09
1400.69
1494.52
1785.43
1614.99
1100.76
1048.38
1065.01
882.90
780.29
983.48
1029.41
2029.28
1851.81
1678.36
1405.49
1566.26
1623.85
1205.34
1536.38
1286.39
1485.36
828.11
630.65
1057.98
856.07
790.75
690.91
872.27
1255.73
1403.93
1437.33
1382.64
1608.68
1474.25
1674.41
1364.15
1485.31
804.19
671.45
853.85
1282.98
953.39
1212.11
1046.29
1687.00
1457.46
1717.89
1295.75
1059.49
1284.14
1439.86
1417.40
1552.97
1533.31
658.81
444.26
693.30
843.74
1008.28
990.75
769.54
1161.85
1397.31
1455.97
3296.57
1184.81
1301.10
1564.20
1426.38
1450.99
1421.93
569.02
564.04
708.12
719.68
3250.44
1006.80
1086.67
1759.46
2111.53
2168.65
2073.32
2175.77
2342.62
3507.58
4226.20
4152.20
4126.77
1387.25
2987.37
4103.77
4145.32
4150.03
2899.68
1864.46
1524.48
1482.50
1129.80
1354.50
1692.65
2294.38
2276.22
1749.13
1726.54
1101.50
886.08
631.53
738.91
411.85
834.36
870.32
1249.85
1179.77
1208.54
1123.99
1659.41
1797.81
1487.58
1415.18
1323.31
1247.89
628.82
679.86
779.18
978.34
636.26
679.94
991.11
1265.93
1396.95
1791.61
3057.68
4119.24
4149.48
3408.28
1796.57
2153.62
3595.19
3732.80
1756.29
1043.12
2373.33
2485.62
879.38
1157.55
1359.30
1317.87
1222.04
1208.20
2850.37
4214.04
4115.74
4165.03
4184.89
2536.85
1441.23
4087.28
4146.31
4066.19
4160.64
4126.93
4130.55
2606.78
1402.21
2676.74
1478.23
1795.95
2095.83
1949.68
1480.05
1125.98
822.65
835.09
640.68
602.48
2696.84
610.40
1023.92
1701.45
1977.09
1992.71
1573.57
1574.02
1560.19
1705.86
1418.80
4155.85
687.77
648.67
536.48
494.08
513.25
1038.58
884.78
1374.08
1214.72
1445.03
3834.86
1449.45
1769.11
1553.95
1352.30
1414.32
1360.59
642.24
1255.59
2540.52
4085.23
4229.38
4258.81
4057.17
2143.22
1338.64
1493.58
2564.47
2654.71
3101.28
2858.07
2224.71
2244.37
1071.39
990.32
1538.01
1450.17
913.03
807.70
810.42
803.06
1349.04
1552.52
1238.07
1125.59
1425.80
1419.83
1688.14
1409.73
1579.07
896.13
1140.69
1836.47
2628.95
3263.87
3796.23
2098.41
1450.91
1218.66
1512.94
1895.72
1204.72
1405.69
1694.44
1693.73
1706.14
1499.62
885.28
1077.70
1415.98
1349.77
863.97
552.47
772.92
1615.59
1454.13
1216.05
1239.37
1437.18
1517.68
1531.43
1756.57
1516.54
1362.06
1120.96
1122.21
1048.90
738.51
834.26
853.40
1123.33
1958.99
2243.09
2613.63
2310.70
2588.38
1737.27
1466.68
1372.34
1717.07
1206.23
722.36
543.50
774.28
1448.78
2706.27
4084.26
4116.13
3965.42
1821.27
1664.91
3384.36
4108.94
4119.82
4128.12
3984.96
2360.88
1422.47
626.61
516.22
1430.11
1643.47
1889.47
1534.48
1998.12
2022.38
2252.13
1705.31
1389.27
1641.49
1477.63
1499.65
1323.45
1178.60
1017.93
1381.58
1051.39
797.98
566.49
947.50
1037.88
1455.13
1308.27
1611.77
2112.83
2783.35
2680.23
2349.73
2007.70
2106.38
1671.00
1053.03
948.26
680.05
1079.33
675.91
704.20
1220.72
1004.75
1402.87
1485.42
1570.63
1956.37
1694.78
1289.36
1978.57
1401.92
582.72
462.20
432.22
885.26
641.46
740.28
743.41
1304.09
1507.88
1737.57
1144.95
1326.19
1716.46
1178.68
1398.93
1649.69
1978.95
2031.67
1427.75
700.44
999.75
873.41
811.16
913.42
1263.36
1376.73
1522.00
1504.03
2394.10
2545.20
1937.87
1591.25
1408.97
706.90
526.97
542.55
1201.60
2097.86
2957.87
2372.06
1726.09
1161.28
1845.22
1094.39
1498.37
1998.22
2390.40
3207.44
2683.82
2327.94
2058.14
1262.58
680.73
1698.49
1241.43
1169.94
1311.90
2160.80
1612.93
1337.29
1109.41
1128.47
1486.98
1779.39
2483.41
1447.96
1183.74
611.48
682.66
759.88
617.20
898.40
1043.70
1317.50
1493.36
2198.58
1363.31
1319.57
1391.79
1354.50
1485.18
1331.16
1293.49
717.04
903.24
1205.55
2552.64
1127.81
1144.18
964.71
1487.54
1106.88
1476.57
1036.87
1359.15
1320.30
1438.41
3025.84
2249.59
2201.91
2030.65
2254.17
1656.85
940.48
805.55
1183.50
2336.83
4025.95
4130.81
4142.43
1916.79
1153.39
2453.75
4133.61
4201.58
4229.44
4084.70
1897.45
1650.53
4163.45
4118.70
3446.66
1803.53
913.90
1535.46
1459.13
1372.08
1040.49
1434.78
1422.15
3737.97
1721.06
2406.84
3020.29
4110.70
4111.55
4177.79
4179.96
2013.07
656.56
2227.33
4122.53
4069.25
2464.10
1321.71
2218.70
3544.29
2284.99
1453.23
3414.16
4102.14
4179.78
4184.78
3969.26
2194.32
586.10
925.13
2157.89
1817.16
2167.36
1869.08
1789.90
1696.87
1583.02
1678.56
1582.94
1105.63
641.22
797.25
758.48
683.23
671.18
716.86
1156.50
1239.02
1465.45
1457.49
1193.31
1457.52
1612.68
1708.96
1480.70
1570.25
829.00
616.64
804.42
975.08
907.64
1113.82
1608.74
2882.26
2841.90
2130.10
1140.10
1106.74
1458.98
1335.02
1449.81
1287.21
1418.84
629.27
780.97
1031.80
817.66
688.60
769.71
628.25
1416.00
1944.30
1820.98
1449.48
1404.27
1406.36
1415.39
1342.06
1474.42
1071.38
894.75
1927.90
2742.59
2930.79
3248.96
1689.15
1234.51
2443.50
2773.17
2404.89
1432.74
1394.10
1265.38
1634.49
1296.32
1538.11
931.86
1380.28
2347.44
2930.72
2574.00
1862.69
680.71
2439.15
3924.52
4157.08
3377.26
2332.30
1306.25
1423.42
1678.06
1708.00
1484.50
601.59
610.00
738.96
1525.37
2384.28
4203.73
4053.11
4096.28
4110.44
1853.11
1409.53
2923.21
3568.63
4173.42
3395.75
1790.96
1181.93
1007.06
1881.11
2182.98
1710.35
1081.67
758.91
1848.62
2445.41
1073.10
1350.18
1156.11
1317.94
1399.18
1468.12
1414.42
1514.35
797.36
1616.93
1701.88
829.90
1037.92
1563.60
2699.85
3079.64
2851.94
2568.04
1586.10
1396.39
2347.95
3510.13
2938.40
2495.45
2017.42
1146.14
662.35
841.66
812.10
807.26
663.89
837.33
1937.42
1345.46
1466.10
1808.51
2489.19
2930.97
2433.08
2272.71
1983.48
1357.77
1090.09
1459.24
1334.41
1378.11
1292.18
737.82
1788.62
2529.01
2894.05
2684.38
1417.48
1328.02
2380.26
1558.12
1613.77
1481.31
752.80
960.94
1008.58
817.08
765.11
554.06
545.27
2160.15
1148.43
1463.36
1168.68
1265.68
1423.44
1953.53
3072.81
4205.14
3547.35
1923.90
1740.84
731.88
1332.73
1980.37
1346.45
563.51
1556.08
1552.87
1460.53
1158.09
1312.04
2771.03
1349.06
1575.17
1295.24
1275.64
1217.82
1856.01
3085.78
3450.28
2166.64
1217.67
3667.14
2950.38
3829.19
3855.64
4137.04
4004.21
1963.56
1454.27
1423.83
1881.30
1511.23
3144.93
1342.98
1338.37
1236.80
1275.35
2544.19
4125.19
4122.88
4100.20
1485.87
1354.93
4104.54
2221.69
2667.79
2694.98
2117.50
1269.10
716.90
485.04
806.73
755.47
818.01
3106.53
1315.36
1727.24
1429.71
1404.65
1401.93
1606.64
1542.18
1557.06
1464.38
1192.39
1509.88
1760.42
1976.16
1869.29
971.35
991.89
1374.14
2047.00
2315.55
2072.27
1564.73
1853.69
1471.20
1630.36
2139.71
1602.97
1742.34
1579.51
1587.75
954.48
537.42
673.97
885.43
1665.88
1685.38
1885.42
1696.59
1703.10
2277.94
2403.68
2087.80
1815.15
1584.77
1552.80
2763.60
2241.63
1440.82
762.67
726.30
765.90
1441.79
1455.83
1478.40
1295.82
1602.38
1780.68
1446.56
1373.95
1358.82
1040.56
539.31
556.41
694.45
576.52
654.42
786.79
954.46
1331.84
1242.27
1239.41
1382.68
1366.96
1487.18
1589.69
1328.10
1376.64
726.08
580.41
440.21
865.92
956.61
654.65
694.93
1362.21
1836.60
2226.07
2067.14
2325.32
2081.38
1811.00
1722.71
2563.86
3771.90
4139.26
4130.13
1485.49
1235.79
2794.37
4129.43
4187.12
4146.64
3244.50
2309.03
1351.40
1273.11
1466.20
1476.70
1366.87
1646.59
1344.93
747.08
709.63
764.15
744.70
907.31
1087.79
1431.09
1989.86
1827.60
1990.61
1619.23
1813.30
1609.87
1484.38
1413.08
1539.87
1461.14
1013.05
937.66
850.22
430.84
1328.53
2040.23
1793.29
1463.41
1567.71
1655.84
1862.93
1533.52
1647.02
1752.29
1717.20
1591.75
1431.55
1094.17
957.55
999.40
621.67
617.70
710.37
1452.53
1689.82
1872.04
1061.29
1418.34
1503.50
1601.01
1911.61
2303.10
1937.93
1408.49
853.21
1037.41
1336.97
1454.43
1458.08
1153.02
1740.85
1932.29
2022.78
1365.46
1397.13
1265.12
1424.66
1781.98
1935.06
1742.73
1002.41
1336.40
1737.53
977.94
733.49
761.33
1259.77
1309.15
1983.91
2004.29
2039.33
1455.69
1366.43
1537.18
1639.52
1517.45
791.53
705.79
858.82
1110.89
883.48
1723.69
776.60
1417.38
1122.81
1304.32
1165.25
1442.14
1399.55
1669.05
1630.58
1857.40
2137.94
1654.63
1228.94
728.53
466.23
583.29
1021.10
1219.12
1518.57
1255.01
2364.34
3489.23
1454.32
1359.48
1421.09
1368.12
1470.15
810.69
841.61
712.94
584.06
615.84
2115.34
1384.55
1611.34
1958.55
1980.51
1835.80
1342.77
1312.08
1933.83
2465.63
1883.55
3482.51
887.86
686.31
905.50
1317.32
1351.90
1415.23
960.21
1202.90
1375.80
1195.53
3644.13
1759.44
1586.64
1608.53
2177.35
2137.98
2164.93
1839.45
1086.56
918.00
1412.80
4201.75
2184.51
2244.95
1625.71
1440.06
1339.33
1323.21
1587.38
1803.10
1609.19
1548.45
3434.42
1175.44
1212.55
625.88
678.64
633.47
704.51
868.51
1394.60
1599.88
1480.69
1282.16
1434.92
1418.76
1494.05
1543.18
1511.95
1616.58
879.99
488.89
1464.37
1655.62
824.19
659.76
724.13
1259.02
1618.99
1372.01
1390.81
1299.61
1502.55
1313.27
1558.53
1873.01
1957.16
1596.99
1537.54
1500.21
1895.89
2742.31
3017.81
2761.16
2653.60
1817.84
1430.93
1728.43
1792.07
2006.28
2244.02
1652.06
1300.39
726.09
567.13
675.24
926.81
949.70
695.01
1357.50
2366.59
2453.57
2840.54
2112.51
1761.77
1377.66
1721.99
1734.35
1948.70
1786.91
926.14
1089.78
1868.57
2420.04
2474.06
1605.46
1311.18
1649.07
1320.43
1929.57
1530.54
1414.60
1225.76
1500.66
1517.32
1519.63
973.37
829.32
1038.23
913.02
914.65
1198.92
638.97
1155.85
1513.21
1437.98
1442.41
1194.35
1618.28
1518.45
1469.73
1486.10
1563.72
1257.46
1456.93
1141.84
1471.49
1864.83
2029.65
2348.98
2741.55
1847.52
1280.88
1813.93
2127.15
1855.48
1531.48
1746.77
1503.15
1450.96
781.96
657.98
430.76
507.97
809.11
621.78
720.39
1298.19
1467.59
1406.23
1386.52
1441.73
1558.46
1524.87
1731.23
2713.96
3218.09
3612.14
3359.55
2350.89
950.54
2143.67
3270.72
2262.97
1798.52
1586.65
2282.80
1245.35
1392.17
1254.97
1325.12
1194.68
1334.84
591.33
1084.89
1750.89
2474.00
2545.27
1700.43
1089.45
1366.13
1521.02
1366.14
1515.82
1461.11
1263.68
1474.76
1394.81
1884.46
1311.21
799.28
498.41
732.09
739.23
472.90
756.35
1105.19
1627.68
1324.03
2564.42
3150.27
2649.53
2100.35
1678.40
1433.69
1533.60
1431.68
1409.68
1780.12
2601.32
1882.44
597.91
1134.54
2021.29
2547.65
2240.38
1415.17
1774.43
2334.68
2905.57
2268.83
2417.47
1454.90
1438.02
1831.43
1818.47
1854.63
1251.35
785.11
644.76
1362.24
1659.14
2071.64
1563.27
2836.41
3229.12
3054.74
2463.63
1751.77
1456.50
2333.28
2979.15
3237.61
3713.13
1404.68
725.77
772.75
1445.66
1272.81
1490.16
1295.14
1266.74
1369.41
1650.56
3213.65
1355.69
1032.24
963.44
1221.45
1030.52
871.00
634.59
843.76
1077.82
1496.34
3050.62
1641.61
1325.31
1472.14
1442.52
1412.19
2095.13
3345.66
3571.92
1769.24
726.59
4121.94
2416.90
1833.94
747.62
1302.72
1386.81
1291.26
1340.49
1979.58
1380.20
1398.96
3338.90
3520.67
4124.01
3582.50
2254.52
932.23
1383.01
2368.68
2523.97
2027.07
1547.14
3231.73
1710.80
1332.46
1644.85
1787.59
1708.27
1623.64
1790.60
1504.62
736.91
724.88
870.56
1142.82
1272.37
1398.40
1317.14
1345.30
1469.80
1668.18
2018.09
1841.15
1857.05
1524.12
1465.60
1390.59
1635.54
901.36
787.00
1166.77
1348.22
1566.08
1242.65
1408.83
1268.20
1117.96
1104.79
1276.16
1453.74
1574.17
1693.06
1410.71
1454.72
512.58
897.74
1284.09
1346.12
1119.67
1335.91
1846.15
1879.37
1960.80
1968.11
1741.62
1478.94
1558.53
1733.09
2384.82
2794.85
2498.67
1571.98
627.72
692.23
1377.67
1670.20
1746.16
2098.17
2534.80
2381.77
1803.13
1428.59
1566.12
1670.04
1700.35
1821.46
1965.07
2053.01
1762.65
809.29
743.80
664.16
576.83
969.42
1476.82
1534.89
1377.42
1326.66
1304.99
1448.64
1661.68
2077.52
2291.09
2739.51
2503.95
1765.04
1124.03
833.00
1327.01
1804.04
1069.83
1496.30
1903.85
2181.14
2005.82
1703.14
1460.10
1449.61
1700.47
1373.32
1011.90
761.61
1293.51
1359.19
949.00
701.48
713.75
1046.42
1482.72
1425.55
1396.03
1446.76
1589.00
1395.18
1666.40
1328.43
1617.19
694.10
611.10
522.79
583.05
1009.05
1360.11
908.69
1260.47
1714.41
1596.14
1887.86
2392.97
2147.32
1662.48
1577.95
1517.57
1680.44
897.70
630.64
1031.52
1052.89
1714.34
1767.38
910.89
1351.85
1602.92
1162.26
1178.87
1202.03
1622.53
2037.59
1684.34
1595.32
1037.10
773.60
1004.32
912.63
756.46
1006.03
1385.99
1927.39
2612.81
2751.70
2350.20
1584.98
1536.20
1628.39
1562.54
1511.62
1589.21
1069.13
684.66
1712.27
1554.55
1044.17
666.95
636.34
1850.82
2089.64
1673.93
1391.50
1386.54
1728.67
3326.60
4109.06
4035.06
2675.63
786.17
2129.30
2019.54
1728.13
1314.42
696.26
1191.15
2843.18
2229.26
1525.24
1136.90
1412.70
1396.50
1382.38
1309.65
1365.96
978.66
647.37
1738.66
942.54
845.73
589.94
771.38
1132.23
1288.37
1182.24
1067.45
1266.13
1343.42
2431.79
1337.43
1361.82
1744.41
1365.08
1362.25
1061.92
548.16
578.85
903.21
724.84
2864.31
2925.46
3210.80
2431.02
1851.90
1293.15
1396.99
1260.52
1155.25
1437.44
693.34
3634.54
881.20
895.13
1497.66
1526.71
1180.96
1200.06
1171.15
1310.43
1090.01
1444.95
3531.82
1317.60
1324.26
1542.69
1490.36
1239.89
921.81
862.28
1637.63
1688.14
1960.35
3320.44
3855.25
3212.67
1875.57
913.13
1412.63
2503.89
2090.95
1406.74
1460.32
699.93
2503.56
472.41
581.19
619.82
1272.16
2179.22
3272.31
2887.63
2460.14
1885.58
1333.26
1359.27
1553.48
1846.14
1910.54
2034.85
1174.76
983.98
1397.06
1484.96
1602.14
1276.74
812.64
1836.81
1823.19
1749.23
1112.39
1442.32
1532.70
1446.86
1462.81
1731.86
1255.58
634.79
579.52
519.69
711.33
632.56
899.42
1253.22
1748.37
1265.08
1411.52
1234.02
1407.38
1434.42
1532.15
1225.30
1439.92
674.43
787.21
1017.42
1020.76
1311.70
1044.14
1067.74
1972.31
1675.23
1529.46
1189.18
1385.10
2695.63
4185.88
4095.02
4160.12
4120.83
4152.90
934.49
4119.91
4126.32
4158.66
4193.52
4175.49
4113.86
4153.84
3566.52
1691.91
1416.89
1473.59
1368.97
1432.02
1577.20
1340.71
1210.98
1243.24
1294.79
1308.28
1480.61
1622.04
2040.89
2140.38
1836.18
1579.80
1451.34
1636.31
1595.83
1557.65
1619.15
1550.25
948.43
721.55
393.38
846.69
1049.52
1074.33
873.53
1564.63
1849.11
1812.30
1422.05
1620.61
1967.66
2075.48
1529.98
1491.71
1471.99
719.99
595.62
861.99
1146.53
580.24
835.90
910.70
1517.22
1718.07
1605.38
1793.33
1937.46
1659.97
1683.02
1357.52
1372.39
933.25
855.41
1199.09
702.46
693.90
615.12
1023.65
1445.94
1769.46
1356.42
1479.33
1248.55
1946.23
1320.19
1432.61
1453.84
1302.57
728.78
1500.34
1920.44
2225.09
1633.97
817.75
1070.95
1372.41
1473.61
1496.69
1123.43
1186.28
1460.65
1401.97
1480.78
1309.25
1383.46
1770.75
1379.48
578.64
648.45
962.55
748.29
670.09
1502.77
1697.54
2706.11
3468.13
3653.97
2933.24
1862.81
1416.63
2739.07
3417.19
2215.51
778.18
962.83
1395.59
1461.54
1461.98
1256.95
1378.11
1386.30
1291.48
1257.90
1522.20
1672.71
1532.06
1371.88
1500.64
1435.17
819.65
554.02
541.96
708.30
982.62
619.98
1303.93
1591.82
1423.24
1183.22
2117.29
1362.04
1285.50
1401.02
1605.84
1744.09
1435.54
1235.98
1924.46
2484.15
2206.43
2380.89
1072.59
1426.44
1338.03
1374.58
1202.84
1342.64
1325.05
1382.38
1361.24
1576.12
2718.60
2245.06
2497.27
2399.22
2302.38
1133.83
745.94
1352.98
2437.57
2231.46
1638.89
3072.40
1258.01
1391.54
1328.47
1507.91
1409.70
691.41
815.15
847.66
1216.37
1248.08
3027.59
1498.52
1955.93
2047.01
2197.66
1593.70
1432.92
1340.24
1841.18
1799.24
1533.42
4078.22
788.43
762.43
405.25
646.22
777.43
694.94
1117.85
1706.84
1891.66
1409.53
2594.41
1468.56
1600.72
1405.04
1636.34
1814.26
1837.20
1887.93
1954.83
1860.98
1278.99
630.21
1052.61
1647.75
1260.53
1256.15
1460.88
1134.85
1374.17
1859.51
2200.05
2107.83
1739.00
568.73
1739.46
1940.94
1430.96
984.44
667.50
687.62
1328.05
1242.25
1346.66
1081.06
1251.26
1223.06
1380.02
1337.03
1428.83
1453.34
1430.90
1483.83
1400.54
989.41
1078.65
1205.37
965.12
1571.01
1837.90
1854.62
1440.64
1374.74
1753.57
1727.84
1696.57
1681.39
1178.74
722.27
623.82
692.80
575.62
1327.99
1562.18
1304.15
1386.18
1179.99
1413.41
1762.54
1767.21
1563.84
1655.84
1755.90
1657.08
820.35
959.16
1683.82
1793.28
1305.35
660.94
614.04
1371.57
1717.30
2534.95
2109.34
1619.96
1451.65
1502.41
1958.24
2217.68
2147.85
1076.67
667.60
817.73
938.26
1332.26
670.08
688.64
1279.54
1304.88
1477.81
1734.73
1325.53
1471.13
1408.42
1495.76
1303.66
935.78
898.44
877.95
436.58
664.40
1219.48
943.95
1120.34
1631.45
1384.92
1378.54
1556.97
1685.29
1908.35
3083.45
4042.84
2968.62
966.26
1157.92
2143.64
1992.54
1577.87
675.87
1439.10
2398.79
2583.51
2791.47
2342.20
1245.23
1188.50
2564.47
2272.58
1700.72
1160.27
764.61
519.31
1781.21
2469.41
2369.00
1003.38
870.90
1133.34
1410.36
1470.13
2360.68
3396.71
3087.84
3099.45
3397.63
3573.87
2201.20
1011.67
633.68
1695.74
2131.72
3054.17
3298.88
3105.89
2553.48
1589.67
1862.71
1072.40
1530.41
1479.25
1683.00
1926.20
2147.48
1505.56
915.67
894.03
1143.55
1712.89
442.94
524.57
1728.09
1778.49
1691.43
1433.31
1786.17
1815.94
1643.64
1125.35
2006.92
1447.62
736.62
1724.42
2457.99
1683.40
640.44
1664.28
2885.30
3997.68
3359.06
3401.10
1391.05
1238.35
2288.66
2615.27
2146.24
2054.68
2305.59
2344.63
1512.94
942.83
1885.65
778.16
1052.10
1014.18
1387.71
1367.15
1299.76
1220.86
1991.60
2069.75
2248.02
3007.73
2341.42
1287.15
473.57
1684.43
2889.57
2702.45
2028.15
1575.25
1786.15
1278.62
3239.32
1426.94
1509.00
1530.27
1842.27
1523.65
1490.20
1456.29
1032.03
1126.69
1435.63
2721.89
2436.27
2338.11
1500.64
1732.89
1551.01
1586.05
1185.32
1173.20
1670.02
1272.48
3571.54
1675.43
991.98
525.80
588.31
597.44
550.68
469.21
680.89
1115.10
1472.37
3918.54
1368.81
1082.59
1318.67
1329.53
1412.59
1550.21
1588.89
1393.71
1682.68
1403.01
2461.49
1047.97
603.93
627.25
1255.29
1060.03
1451.65
2607.71
4208.43
4100.12
4153.28
2630.57
1550.66
2744.14
4102.99
4178.08
2851.03
1178.32
807.25
1308.04
1012.73
1265.08
1119.70
1399.56
1801.40
1549.43
1441.61
1740.00
1653.72
1294.89
887.43
1422.29
2109.88
2405.82
2245.14
1879.45
1013.18
1061.53
1376.68
1220.98
1707.69
2175.81
2421.86
1752.67
1585.77
1813.25
1701.69
1043.01
1313.92
1415.82
742.27
695.68
1309.74
979.59
1369.70
1192.66
1508.45
1250.84
1349.69
1527.77
1623.66
1402.95
1169.10
1315.04
767.07
778.89
1359.52
1852.58
2078.15
1558.65
1498.10
1627.27
1507.73
1328.97
1538.32
1972.39
2861.62
3733.76
3969.56
3552.43
1909.78
1196.52
2707.27
3150.55
3183.27
2622.97
1966.25
1363.96
1451.52
1458.07
1688.06
1430.10
1766.23
2442.13
3357.53
4106.93
4065.51
3774.21
1689.19
498.10
891.45
615.66
1082.62
1456.50
2303.51
1471.93
1407.81
1824.93
3081.64
3243.74
2910.91
2723.53
1622.99
1312.99
561.44
559.98
505.90
739.76
1342.23
1385.19
894.28
1121.93
1424.96
1369.19
1303.66
1069.30
1489.29
1799.19
2007.00
2039.26
1570.80
1270.50
473.85
1101.29
1428.57
665.37
758.06
1887.30
2371.25
1478.05
1363.87
1119.27
1545.54
1730.31
2741.73
2281.84
1581.73
734.14
408.80
388.73
598.29
607.54
707.57
635.04
1273.05
1556.03
1516.49
1114.36
1362.73
1344.00
1463.42
1574.51
1878.14
1688.44
1118.33
836.82
1396.94
702.43
852.45
974.78
1359.99
1770.90
1983.59
1526.74
1260.77
1418.21
1796.91
2627.37
2655.33
2410.02
1524.49
626.10
1969.90
2610.14
2871.43
2769.62
2060.94
1790.10
1956.83
1365.24
1626.84
2805.21
4168.71
3995.73
2239.57
1420.04
1957.61
2044.97
1386.31
1601.44
870.27
1187.34
883.79
762.49
1815.32
1633.07
1699.27
1593.52
1552.04
1554.95
2604.79
2184.96
1444.23
1460.97
1542.67
902.95
698.46
1192.04
1778.43
1917.71
1443.97
2545.71
1400.35
1278.56
1279.15
1355.02
1387.87
1464.17
1968.88
1961.64
888.73
676.21
1913.28
632.39
606.58
902.71
1293.69
1532.58
1777.25
2040.61
1661.11
1532.14
1496.32
3013.95
1486.88
1706.57
1870.25
1123.26
1448.47
1074.68
544.64
740.66
1394.86
1416.75
4215.72
1459.41
1475.50
1131.02
1197.13
1460.61
1485.19
1642.76
2307.00
2864.62
3405.65
3938.07
1409.82
1017.95
517.08
1180.33
1048.49
1312.69
1342.82
1202.51
1012.26
1218.74
2697.44
1332.74
1352.12
1426.13
1463.48
1914.90
1427.07
579.64
878.45
1255.21
1419.18
1260.01
1414.26
1498.27
1425.13
1451.11
1573.01
1657.88
1631.19
1581.69
1611.02
828.62
668.18
921.07
1085.08
1097.81
1449.45
1098.83
1885.20
2645.22
2837.88
2125.53
2333.28
2039.26
1804.78
1448.40
1389.15
1381.49
582.43
548.28
761.75
935.56
1045.09
1133.35
899.77
1741.58
1810.60
1899.39
1462.43
1302.85
1377.77
1637.25
1706.21
1286.58
904.20
677.24
327.95
874.28
697.43
935.15
1403.35
1918.47
2004.91
1585.93
1815.69
1373.77
1457.00
1526.12
1719.91
1780.93
1909.90
1198.53
1029.87
762.93
612.02
473.35
1137.40
1051.12
1466.43
1369.82
1294.48
1205.76
1801.40
1969.13
1543.16
1248.52
1667.36
2150.25
1832.09
1442.80
1123.45
1338.73
1289.47
738.78
1526.84
1478.51
1580.10
1326.22
1288.84
1280.59
1507.40
1619.85
1766.70
1574.69
995.38
612.00
594.31
589.63
742.65
827.01
1030.74
1501.15
1263.19
1306.40
1413.53
1457.26
1651.80
1502.79
1496.02
1638.83
1752.27
1240.06
1756.67
1675.52
1160.97
654.99
720.10
845.33
1776.01
1837.30
1381.53
1227.27
1093.12
1521.57
1357.50
1391.04
1499.78
1393.49
626.74
706.51
562.12
900.55
1422.89
1391.00
1459.33
1449.17
1790.28
1685.41
1489.22
1403.48
1303.38
1575.01
1784.93
2064.07
1719.84
1761.12
1044.19
918.59
753.23
752.45
1329.21
1237.57
1406.69
1739.63
1368.73
1262.93
1956.31
1564.23
1393.13
1509.83
1502.46
576.28
560.41
732.42
1095.59
712.60
727.87
1104.32
1197.76
1387.50
1326.60
1125.14
1110.51
1404.08
1287.71
1524.24
1988.69
1850.19
1790.20
1145.41
961.05
1148.58
1927.56
1934.37
2095.35
2579.44
2114.03
1451.64
985.24
1909.23
1275.53
1336.26
1437.82
1243.88
1140.65
1120.58
1275.91
1377.18
1186.33
1172.49
1877.07
1202.08
1395.48
1459.69
1497.25
1606.63
1395.67
1320.73
1405.98
1419.21
1373.61
2088.53
484.29
832.19
1663.12
2171.37
1423.12
802.90
1389.40
1441.75
1193.52
1291.47
2448.42
1571.46
2015.25
2452.76
3270.92
3228.35
1927.93
888.50
3205.78
3731.11
3617.96
4216.57
3180.08
2492.72
1248.09
1324.71
1151.23
1361.03
1652.51
1528.95
1503.86
1401.74
3339.98
1536.23
2050.93
1709.20
1325.99
1529.73
1338.48
1905.69
2559.71
3271.45
3079.37
4144.37
1470.93
1329.50
1421.11
1296.55
1496.43
841.34
436.82
757.98
616.22
816.42
1733.26
744.58
1322.35
1482.77
1537.93
1577.83
1725.77
1641.14
1608.24
1495.93
1628.91
2817.52
823.82
567.07
574.55
750.78
690.37
901.94
960.89
1941.78
1687.34
1487.34
1341.14
1276.54
1454.09
1420.50
1429.44
1618.62
1187.63
970.96
929.51
786.64
724.48
590.14
569.74
1046.80
1352.21
1306.52
1142.02
1386.71
1260.08
1294.31
1552.94
1481.81
1527.01
626.08
1231.83
2371.73
2595.27
2222.04
1946.92
1998.20
2790.71
1962.96
1402.79
1286.57
1060.53
1406.50
1565.01
1415.26
1524.26
1352.49
661.43
778.19
878.62
672.58
691.96
1130.57
663.69
1465.04
1505.14
1725.97
1290.59
1274.39
1425.38
1470.18
1775.47
1772.41
1417.37
1042.68
1610.86
2488.91
2704.98
1568.35
764.50
1139.12
1411.99
1424.21
1316.55
1349.75
1677.49
1450.04
1560.49
1622.15
1398.82
846.39
942.47
775.32
834.89
1180.03
1342.82
821.54
1361.43
1387.48
1344.56
1092.65
1258.53
1657.32
1690.17
1522.06
1512.15
1858.26
1097.98
1107.01
1585.62
1495.46
1467.40
1190.00
558.14
1341.18
1452.31
1614.49
2070.76
1808.75
1474.84
1428.65
1949.62
2029.78
1301.45
559.98
713.20
797.68
654.03
1088.35
898.32
1210.79
1591.58
1355.39
1303.29
1299.68
1444.46
1505.88
1312.02
1391.88
1868.66
1344.48
1363.61
843.30
630.72
734.84
683.09
559.61
1401.21
1444.66
1452.89
1558.60
2025.63
2042.70
1403.60
1364.43
1439.03
1490.19
806.09
1173.48
769.35
657.23
1444.62
650.04
971.95
1377.80
1505.27
1396.84
1183.55
1580.64
1576.00
1545.13
1426.81
1803.25
876.89
1171.90
1030.57
608.80
815.29
1142.93
1153.21
1670.48
1955.12
2172.17
1947.83
1180.97
1403.29
1611.93
1623.03
1465.63
1567.65
1958.68
4121.73
4161.15
2841.99
1823.48
786.90
2494.15
4098.19
4055.66
3013.19
1737.71
2004.64
1778.12
1659.82
1404.64
2654.48
1851.47
1149.60
769.02
769.23
792.41
1114.26
1378.17
2234.21
3342.42
2250.32
2420.34
1121.13
1421.46
1605.52
1324.77
1598.47
1973.25
1921.43
987.42
673.97
1195.70
2273.73
865.52
1428.46
1502.29
2190.55
2443.70
1948.82
1584.59
1702.96
1402.01
1467.97
3335.77
1395.15
648.73
691.90
667.99
515.28
546.00
593.90
622.63
1243.64
1575.53
3334.61
1656.94
1500.85
1444.04
1450.44
1780.01
1680.14
1583.36
605.43
1141.60
1373.39
4231.72
733.85
793.42
929.86
1052.12
1694.37
1328.77
1232.03
1374.85
1556.00
1289.43
3838.00
2301.07
2254.36
2100.02
1554.74
1022.87
1055.03
1354.63
1367.76
1332.98
1600.76
1851.70
1327.80
1199.93
1387.59
1425.81
1987.56
2020.78
1693.73
724.71
730.39
854.21
1093.79
1447.22
1043.41
633.20
1412.29
1179.30
1506.65
981.70
1136.23
1316.28
1474.40
1591.87
1513.52
1424.98
656.14
1126.17
2262.10
3206.13
2806.14
1466.05
652.78
1452.56
1395.74
1252.86
1126.43
1671.34
2316.78
1725.04
1579.38
1462.01
1275.66
1270.06
999.69
935.83
1413.09
1828.55
1367.17
1763.82
1459.85
1305.36
1476.22
1437.55
1497.98
1479.19
1593.09
1503.04
1864.01
1215.81
931.63
902.20
890.74
614.02
590.27
530.94
1512.43
1268.44
1490.24
1108.89
1254.69
1338.75
1422.37
1307.97
1476.77
1327.21
656.43
493.72
659.14
663.85
656.09
911.62
754.13
1387.21
1377.98
1282.15
1325.84
1455.52
1436.45
1361.70
1594.39
1406.54
1265.49
1097.13
1237.90
1444.78
1060.23
727.36
795.54
1269.74
1608.38
2234.41
2233.48
2488.91
2492.81
2059.68
1895.04
1477.97
1491.98
1643.27
1743.44
1920.38
1219.53
571.84
703.34
809.57
1232.14
1177.86
1393.05
1165.50
1165.64
1389.11
1425.51
1342.56
1555.46
1616.82
930.49
480.28
939.72
1184.27
1083.77
1243.69
1887.02
3177.12
3404.94
2155.48
1284.25
1197.01
1430.80
1736.25
1630.94
1519.55
955.68
801.63
636.36
928.14
479.72
588.01
874.51
1135.28
1394.41
1284.07
1225.24
1178.69
1437.54
1669.68
2313.44
1594.12
1508.52
668.71
977.81
1405.06
1759.90
1571.38
1100.38
751.93
1173.72
1887.60
1425.67
1236.19
1258.92
1656.26
1480.96
1666.32
1746.14
1771.04
1346.75
1063.76
1361.20
602.76
885.16
1989.92
2426.98
2809.65
1842.52
1339.75
1322.62
1926.84
1731.98
2306.99
1304.93
1422.57
1174.96
561.27
1108.69
1686.45
1500.27
1085.72
632.34
1308.35
2335.28
1160.68
1291.67
1284.87
1972.73
1515.20
1905.53
1766.20
1727.36
807.08
780.84
1776.94
667.67
679.36
569.45
629.62
1337.12
1439.83
1427.90
1150.90
1308.70
1369.23
2756.09
1606.80
1677.97
1417.18
957.77
669.10
497.84
554.15
1173.82
1374.63
1631.29
3191.57
1440.21
1318.89
1277.21
1345.32
1793.87
2303.83
2107.03
1474.79
949.17
1596.10
4002.68
764.52
749.94
566.66
940.37
1245.37
1539.34
1781.75
1791.27
1579.25
1479.42
4123.02
1572.53
1796.90
1433.16
901.62
763.21
745.34
778.25
917.79
558.50
669.39
3713.74
1740.31
2432.59
1623.39
1515.15
1448.64
1426.16
1488.92
1401.49
1336.58
935.48
1325.19
734.04
921.72
764.87
564.13
574.09
1417.83
1216.71
1246.32
1338.19
1193.20
1436.60
1370.05
1538.50
1713.02
2502.58
3098.75
2900.78
2399.69
1490.25
638.23
1245.64
1671.31
1735.41
1166.56
1227.28
1163.35
1503.48
1377.41
1490.62
1671.66
1742.89
1208.06
802.67
873.53
966.37
691.02
913.17
639.71
2084.58
2906.26
2447.78
1322.13
1367.15
1384.50
1398.03
1407.69
1467.50
1613.56
906.34
1155.73
1277.94
1359.70
1283.50
1160.73
1540.29
2600.38
2399.57
1623.12
1104.98
1483.46
1786.64
1369.25
1433.68
1334.42
787.33
594.26
777.92
1223.13
789.14
643.43
712.64
1132.56
1511.06
1648.29
1407.22
1282.37
1287.14
1849.67
1901.31
1852.15
1494.81
634.88
811.53
1189.85
1508.03
1597.28
1547.29
1237.94
1816.29
1442.31
1425.69
956.46
1357.37
1602.58
1398.47
1495.34
1659.00
1386.68
645.75
776.89
683.67
612.54
804.51
699.69
806.96
1267.59
1358.23
1369.89
1084.06
1337.99
1407.31
1404.62
1658.39
2407.68
2515.94
1492.99
1105.75
1391.43
1982.32
2396.36
1801.15
1682.81
1612.42
1438.12
1295.30
1325.57
1275.79
1421.61
1441.96
1410.21
1640.25
1477.94
2019.12
625.79
795.94
870.49
1348.98
1311.81
1427.09
1484.41
1373.21
1692.93
2298.50
1739.73
1306.11
1482.81
1388.32
1519.91
1168.76
1081.81
931.55
1140.81
1039.71
684.30
1409.63
1582.80
1480.09
1531.40
1443.66
1678.45
1400.44
1446.44
1356.44
1483.72
985.02
1168.34
798.97
610.11
1016.82
1944.62
2150.45
1845.53
1319.11
1411.41
1219.67
1265.54
1842.53
1373.62
1316.66
1422.16
1693.04
1386.65
1520.73
1722.46
1504.56
1328.18
1351.55
2383.72
2779.79
3164.59
2847.05
1622.47
1121.78
1676.36
2335.42
2370.24
1757.82
1676.30
1801.19
832.76
984.51
942.41
1316.09
1423.19
1030.67
1458.65
2323.15
2273.54
1580.42
2492.98
1271.74
1408.47
1370.65
1371.74
1713.49
2588.05
2898.18
2767.87
2327.24
1915.73
2530.23
1991.09
2151.17
2321.32
2373.99
1536.27
1445.11
1390.31
1465.64
1568.39
2087.68
4076.21
676.84
843.36
1075.35
1214.99
931.65
697.46
2218.77
2671.11
2775.95
1762.38
4182.59
1340.04
1430.93
1459.28
1756.42
1706.48
1275.74
846.67
616.07
468.02
651.07
3285.00
1001.92
2099.25
2619.18
2701.66
1812.21
1705.64
1492.50
1392.94
2003.56
2035.42
4120.29
635.69
1180.77
1283.44
1305.06
733.02
859.42
1127.86
1394.49
1330.14
1294.68
1708.34
1427.28
1354.88
1441.91
1443.37
1570.63
793.12
842.93
1023.33
1366.82
1467.68
1521.09
1639.66
2666.77
2801.35
2594.06
2197.28
1989.60
1369.53
2519.63
3443.02
2733.33
2155.04
1387.97
641.79
656.38
374.67
749.58
520.30
761.80
1494.72
1198.65
1326.36
1116.75
1373.76
1612.41
1781.29
1976.47
2408.24
2541.97
1878.23
1508.04
1347.76
1044.75
755.89
746.83
1133.29
1413.96
1269.89
1240.45
870.97
1172.36
1390.99
1396.99
1824.12
1673.23
1082.05
1448.47
813.69
886.20
673.79
641.18
919.36
1430.76
1227.62
1471.36
1405.20
1306.31
1819.72
2445.73
2643.58
2446.44
1602.68
665.94
623.94
738.75
574.36
961.33
947.66
738.15
1630.87
1472.98
1724.31
1545.89
1448.15
1359.53
1472.43
1326.53
1371.84
1061.74
1378.07
1581.68
1559.99
1027.33
470.42
929.38
1150.17
1263.77
1381.21
1177.13
1404.94
1399.24
1487.31
1708.47
1665.01
1753.80
866.46
843.94
736.57
836.27
793.66
1384.12
962.08
1655.52
1621.84
1521.33
1092.78
1375.36
1590.81
1594.78
1423.84
1346.59
1529.51
1020.26
1151.62
880.39
596.28
782.14
830.45
685.09
1372.71
1341.34
1339.83
1846.69
1430.64
1296.22
1645.19
1740.32
1442.81
1010.38
1176.03
1272.24
1186.69
1495.72
1907.21
1436.67
1452.95
1578.51
1470.43
1192.65
1211.43
1274.27
1244.46
1285.37
1400.47
2082.32
799.27
594.62
624.88
932.91
1003.11
922.16
923.41
1612.46
1520.63
1700.99
1887.47
1152.29
1328.41
1442.23
1555.06
1621.95
1497.00
957.30
951.85
1120.94
958.79
1374.01
494.74
757.63
1554.61
1807.54
1849.45
1681.87
1919.39
1782.02
1626.41
1582.37
2145.87
955.35
932.05
965.16
790.92
917.94
735.78
623.95
1146.42
1348.75
1329.53
2031.55
1385.04
1360.06
1840.39
2215.76
1916.13
1327.14
857.20
564.66
754.01
693.79
2212.39
2043.50
1838.40
2301.94
1876.29
1753.60
1329.18
1371.76
1864.68
1618.73
1485.03
2759.10
1601.02
620.77
481.90
1100.24
1368.17
993.55
525.13
1246.27
1367.66
1424.35
3081.52
1510.50
1655.29
1511.13
1435.69
1700.98
1569.41
1035.53
1010.06
1423.18
2195.54
3311.34
2234.12
1558.99
1655.58
1463.94
1448.97
1722.85
1571.73
1724.50
1809.41
1968.04
4120.82
1534.40
827.50
771.96
1064.18
1220.61
747.56
676.39
640.15
2003.06
1880.47
4038.50
1448.94
1455.89
1483.52
1572.42
1709.67
1698.64
1574.10
1049.62
1082.55
689.32
1103.57
876.26
763.70
1046.31
1650.44
2051.61
1891.71
1796.63
1724.89
1510.75
1621.48
1340.00
1648.22
945.95
613.00
752.86
711.47
664.52
658.25
609.57
1228.41
1512.56
1667.76
1554.46
1356.55
1470.48
1433.39
1543.27
1685.86
1633.21
1081.55
1093.50
636.40
629.09
645.84
726.10
1111.68
2078.72
2380.81
2939.82
3128.72
3168.84
3134.79
1913.26
1660.16
1925.24
3262.24
4099.37
3352.55
1934.39
693.27
600.96
906.64
1337.39
1958.96
1929.89
1709.41
1406.60
1426.81
1472.41
1670.59
1570.31
1739.77
1350.20
1104.31
851.07
1101.99
1207.36
918.41
856.53
1420.03
1785.44
1545.03
1463.03
1526.56
1640.85
1703.57
1802.09
1904.75
1942.36
1006.51
1001.30
710.83
1083.03
1751.32
1578.86
913.52
1783.93
2023.24
1950.47
1246.58
1504.17
1584.95
1543.34
1540.24
1688.81
1744.48
2076.27
2454.77
1978.01
980.63
775.74
1448.21
939.69
1708.87
1812.07
1839.92
1377.30
1516.75
1525.25
1581.71
1731.86
1886.70
1189.75
945.59
891.26
614.25
615.13
719.38
810.23
1547.50
1498.48
3766.91
2141.28
2257.61
1432.84
1600.27
1851.73
1687.25
1558.41
864.02
862.90
789.36
2884.32
872.14
741.41
728.12
1590.58
1418.09
1475.01
1137.36
1414.63
1627.13
1619.98
1666.09
1997.87
1725.47
1281.56
2056.41
1859.77
1705.83
943.56
621.70
1013.32
1527.35
1494.04
1439.54
1254.36
1414.08
1433.95
1443.58
1553.15
1547.57
1052.01
826.32
1233.75
934.46
1242.87
1024.66
833.98
1351.85
1662.77
1399.56
1424.09
1550.35
1893.95
1879.78
1830.53
1886.85
1588.28
662.13
633.41
876.75
1046.33
554.33
689.28
928.28
1340.15
1686.96
2545.05
1338.10
1342.02
1515.08
1471.33
1456.65
1680.15
1528.48
1140.96
1493.61
1275.53
1445.92
1065.04
871.09
996.95
1602.96
1634.27
1804.26
1883.08
1898.61
1755.81
1581.48
2445.84
1698.67
866.35
536.28
627.43
764.86
593.62
587.29
966.26
1390.78
1384.15
1481.13
1410.02
1361.06
1397.85
1499.43
1511.17
1646.00
1715.91
1442.96
1407.09
1002.21
824.74
794.08
843.89
556.03
1414.85
1423.37
1517.69
985.29
1579.06
1779.95
1831.71
1454.07
2084.85
1541.24
1180.65
1321.63
1457.50
1849.86
2031.36
1417.93
1284.89
1744.28
2268.60
2348.07
1303.54
1359.55
1478.62
1431.94
1614.77
1666.72
1341.94
1084.66
525.00
665.44
1434.49
1100.46
1245.75
1810.81
2015.11
2090.27
1748.87
1649.11
1695.95
1511.20
1717.32
2096.39
1687.37
795.38
615.75
867.94
844.29
557.14
994.17
670.30
1525.96
1575.32
2096.55
1326.77
1331.69
1429.27
1386.63
1500.80
1748.71
1742.62
1261.08
684.79
551.78
1674.59
842.57
667.19
988.77
1633.28
1612.05
1453.51
1308.80
1828.30
1495.00
1499.79
2603.31
1802.37
1176.36
945.81
667.89
647.36
643.16
935.80
753.02
1378.60
1321.48
1569.77
1495.58
1193.57
1583.93
1341.71
1532.07
1432.50
1623.84
981.92
580.34
1275.28
1300.55
990.25
682.21
870.06
2458.26
3495.81
3082.45
2219.31
1961.93
1868.81
1943.05
1576.98
1695.49
1443.70
873.93
515.88
806.12
1094.41
949.09
748.57
1099.90
1492.91
1868.37
2109.86
1476.79
1515.41
1555.45
1607.74
1869.09
1666.76
1080.52
649.39
657.48
768.15
1849.21
628.75
897.66
1733.61
1819.48
1601.11
1438.31
1218.45
1486.80
1524.26
1617.33
1866.14
2096.19
1600.59
1589.33
963.50
622.81
1807.81
2589.54
2721.27
2692.38
2180.92
1669.74
1383.39
1477.94
1946.28
2374.36
2480.55
2221.58
2081.96
1284.22
792.81
874.51
673.03
961.44
1297.71
1544.93
2159.82
2185.55
1865.25
1428.72
1446.31
1569.46
1502.93
2001.21
1937.66
1367.36
886.68
572.69
1594.41
2641.52
2370.65
1504.05
1798.38
1362.49
1318.26
1406.80
1636.45
1662.83
1889.28
1508.24
1669.89
2333.65
2366.75
1976.67
1658.77
950.75
835.47
1006.98
1179.56
1782.43
1463.61
1404.35
1174.15
1306.47
1538.54
1496.84
1724.93
1778.18
1507.25
850.61
773.69
1252.73
1165.58
836.58
677.61
1247.73
1435.29
1487.50
1545.04
1407.44
1582.74
1953.58
1870.61
1960.09
2483.48
2368.70
1914.48
1464.71
526.08
692.75
756.05
663.58
1097.48
1532.80
1633.84
1425.24
1156.61
1540.50
1466.05
1578.20
1621.14
1547.69
693.81
814.09
1416.86
1796.19
1523.89
1395.14
1231.44
1535.16
1516.97
1603.37
1551.97
1379.83
1505.43
1800.67
1635.75
1640.31
1700.52
1277.61
972.96
1066.02
1041.52
1162.67
2121.75
2366.38
1595.98
1632.48
1410.91
1362.25
1564.75
1502.76
1775.96
2143.09
1562.36
985.50
711.99
709.63
697.66
795.98
662.61
1017.04
1515.31
1434.14
1947.92
1492.16
1737.05
1628.54
1840.28
1690.76
1857.83
1735.97
857.20
663.30
954.56
1618.20
1080.77
955.92
1138.18
2044.88
1872.52
1443.16
1305.18
1643.64
1605.00
1511.30
1928.93
2053.33
1844.18
1612.54
1612.44
1312.91
1199.42
973.73
835.35
1605.33
1579.37
1989.57
1654.11
1604.20
1375.90
1580.08
2461.07
3185.70
2985.71
1942.99
718.88
834.39
1854.55
1566.95
2024.46
1722.40
1819.80
1523.46
1706.81
1601.11
1873.42
1686.44
1598.82
2479.17
1489.84
1577.39
628.24
1099.58
1455.52
1424.52
668.24
813.72
787.58
1433.71
2981.83
1517.31
1412.80
1451.65
1493.58
1571.06
1486.55
1576.83
1430.36
762.36
531.25
2370.85
697.47
892.02
907.30
1222.48
1850.97
1416.67
1410.85
1309.33
1558.92
1515.42
3600.47
1630.62
1654.10
926.23
918.62
1082.16
845.76
619.72
1273.28
1147.33
1622.39
4176.86
1546.85
1352.71
1390.41
1611.99
1585.03
1896.96
2248.65
2143.37
1916.15
1560.86
2894.87
892.81
1322.57
1052.23
754.22
1825.95
2109.39
1946.65
1196.89
1315.04
1439.86
1853.95
2482.52
3258.38
2709.84
1844.74
1147.96
934.29
2113.48
3269.35
3202.20
2719.81
2656.58
1910.38
1511.22
1385.03
1354.05
1448.28
1373.85
1396.74
1396.09
787.90
750.16
754.57
745.79
1036.66
830.00
811.26
1403.72
1518.26
1783.69
2045.53
2298.71
1974.02
1604.33
1522.61
1658.03
1446.00
763.31
610.92
878.89
1098.00
1077.23
728.49
698.86
1424.15
1398.32
1547.17
1471.49
1376.04
1634.33
1556.34
1432.95
1436.38
1501.95
602.00
663.63
1006.57
1189.41
924.75
1114.75
1733.09
3103.94
2617.02
1727.45
1348.89
1352.66
1487.71
1604.37
1465.51
1674.78
1242.02
936.26
676.18
746.36
1405.51
2356.32
1864.19
1968.72
1520.17
1338.09
1336.15
1716.13
1978.14
2661.65
3753.20
4099.93
4147.30
3486.50
1075.23
1574.01
2690.07
2766.28
2902.49
2896.72
1991.51
1440.58
1518.99
1418.82
1700.85
1840.65
1724.11
1639.20
1345.94
1416.64
974.87
1539.30
1528.90
1636.02
1750.31
1277.52
895.49
1736.61
1699.73
2125.48
1806.75
1788.29
1353.27
1409.65
1324.45
1594.72
1224.45
1300.55
1014.79
955.30
725.92
646.19
633.90
1342.01
2024.93
2160.18
1791.20
1763.17
1669.01
1801.93
1758.52
1542.68
1460.24
741.32
676.77
835.55
1031.66
1047.62
534.29
642.45
1985.77
1517.70
1095.23
1306.55
1361.19
1477.84
1322.00
1515.92
1471.46
1447.55
1241.43
1448.29
831.94
588.14
778.40
759.05
848.97
1632.40
1315.64
1372.46
1103.26
1334.48
1731.21
1504.97
1456.45
1568.63
817.06
668.16
697.55
770.72
1024.93
1043.39
1344.98
2757.92
1565.95
1419.65
1417.25
1278.17
1414.45
1412.69
1351.02
1493.19
1481.93
893.56
2881.42
1471.09
1648.87
1322.01
1092.83
561.25
1358.20
1409.55
1594.00
1171.40
1287.61
4191.37
1410.03
1422.73
1683.26
1749.90
969.09
657.25
644.46
673.78
840.57
1182.59
2917.58
1909.62
1902.18
1583.11
1469.23
1549.21
1377.29
1440.51
1366.01
1533.13
1022.29
3849.28
1582.22
741.63
1034.87
1384.11
1149.21
1194.64
1407.42
1368.53
1059.92
1184.95
1360.55
1538.31
1374.89
1390.81
1313.35
633.83
710.12
822.04
565.30
862.13
471.64
604.17
1270.70
1283.00
1375.38
1220.16
1078.89
1425.99
1762.27
2108.36
2376.55
1666.47
873.41
532.67
820.49
826.88
739.09
1008.58
1277.06
1405.25
1697.11
1633.02
1441.86
1882.03
1937.85
1337.80
1516.39
1456.91
810.29
550.49
661.75
805.54
748.95
698.84
1129.63
1399.52
1519.57
1580.05
1415.93
1436.47
1507.47
1598.50
1572.95
1557.99
1593.80
1149.23
1006.21
1259.91
1095.45
1049.04
1020.18
1313.09
1718.79
1892.21
1940.85
1673.84
1937.16
1568.44
1635.66
1588.19
1629.79
1707.15
681.83
812.56
842.85
1000.93
619.55
814.01
1544.94
1823.48
1367.48
1546.23
1319.41
1386.41
1404.29
1602.52
1438.72
1547.40
783.04
431.48
791.90
1086.63
1409.66
1467.16
1671.94
2259.04
2702.72
3542.72
3176.37
2382.65
2099.78
1881.54
1679.94
2543.32
2687.42
2357.96
1576.56
908.69
578.08
748.14
475.52
618.29
1797.44
1676.47
1494.95
1420.19
1331.45
1548.12
1339.80
1533.82
1520.73
1693.07
1084.18
1446.46
1087.68
949.46
920.57
998.00
1084.70
1600.19
1572.32
1780.91
2008.25
2924.90
3702.62
3416.42
2477.71
1619.21
1109.52
2257.10
2222.94
1863.62
1215.65
616.54
695.11
2239.50
1235.65
1508.81
1754.21
1421.35
1381.62
1290.06
1380.69
1377.50
1335.50
1090.81
2457.53
1718.88
1561.23
918.80
676.17
1014.89
1823.81
1899.00
1947.43
2071.24
2169.67
2713.52
1310.39
1596.87
1490.73
1486.54
786.68
1184.49
802.59
758.72
832.35
753.25
2807.86
1446.16
1285.67
1438.58
1131.14
1420.25
1394.40
1566.79
1499.51
1428.98
1257.42
3048.03
942.18
679.27
1256.65
1943.08
2296.86
2635.24
1943.59
1381.74
1159.95
1301.62
4161.29
1643.00
1536.73
1509.52
1710.63
1239.16
1234.75
1407.69
1172.28
597.02
904.56
3930.28
1225.40
2106.63
3255.47
3114.17
1404.89
2384.90
3333.84
4113.88
4080.63
2991.59
4097.92
1339.14
714.77
571.11
1103.78
691.76
625.26
1490.74
1607.93
1367.79
1515.57
1905.87
2139.35
1534.81
1348.82
1368.23
766.59
869.42
630.62
750.19
951.76
547.95
487.47
1266.63
1467.92
1369.78
1211.83
1342.54
1431.42
1930.28
1785.74
1724.82
1817.75
1029.19
702.02
553.66
660.71
694.00
1131.40
1250.58
2222.05
2036.58
1693.86
1282.39
1397.38
1589.78
1380.07
1472.55
1452.88
1528.89
1047.63
1013.51
1273.64
818.77
517.82
1013.54
1625.84
1982.73
2297.56
1502.36
1271.38
1330.88
1531.23
1696.19
1649.21
1357.92
930.65
1060.39
826.88
1305.63
1198.59
918.03
949.31
1436.69
1418.77
1883.38
1633.36
1385.15
1642.13
1501.53
1622.95
1597.34
1679.82
1075.69
1418.18
888.92
927.80
699.47
892.77
786.36
1341.15
1581.21
1476.89
1134.73
1261.09
1590.86
1337.58
1222.61
1506.61
1383.32
1413.60
842.00
845.83
682.76
1009.28
911.86
1071.13
1634.22
1757.97
1796.80
1460.05
3940.50
1527.65
1489.66
1381.68
1354.51
590.24
635.19
792.89
960.24
449.33
845.27
565.70
1410.52
1463.57
1287.31
1290.50
1397.71
1539.12
1527.67
1473.63
1128.31
1665.71
1674.03
2452.43
1669.54
945.75
716.83
865.64
1240.31
1382.52
1385.00
1249.02
1133.99
1186.61
2320.33
2115.80
3048.35
3998.16
4014.21
2441.15
1363.28
822.64
1464.41
2163.68
2435.36
3649.08
2371.07
1510.15
1299.71
1220.88
1141.68
1403.48
1305.56
1431.89
1553.98
1158.87
2058.35
1199.91
1266.81
1324.87
1403.95
1368.09
1782.03
1658.61
1279.08
1019.80
984.42
2686.53
1293.13
1400.99
1211.29
1327.32
870.02
757.03
541.08
751.09
1034.31
705.17
2218.03
1204.33
1270.49
1258.35
1127.29
1437.33
1208.73
1422.26
1572.45
1704.49
1549.67
3073.61
1148.55
1269.07
1276.52
1516.03
1032.80
1041.75
1261.96
1301.83
1201.85
1024.97
4019.35
1674.65
1849.25
2142.83
1388.58
679.26
1363.23
1915.92
1868.11
725.69
879.00
3595.48
1287.70
1181.09
1048.65
1217.58
1118.35
1420.24
1444.37
1548.91
1473.87
1437.49
2209.41
986.31
1420.52
923.04
829.70
732.23
881.99
1923.20
1856.01
2573.51
2301.70
2387.87
2430.83
1954.37
1497.79
1409.03
1379.87
825.05
544.28
317.16
602.96
687.14
1196.06
1334.10
2459.09
4038.37
3510.22
1789.19
1145.17
1714.87
1770.43
1962.97
2322.90
1870.79
1379.17
1011.24
915.54
503.92
493.27
699.31
1627.58
1788.69
1829.06
1793.61
1329.36
1594.62
1781.71
2114.32
1748.57
1468.10
484.98
509.29
646.36
535.87
586.49
835.07
570.99
1299.31
1202.31
1139.59
1130.47
1040.10
1286.79
1432.10
1134.29
1402.54
979.91
954.25
799.23
540.20
520.25
766.74
763.51
1057.07
1946.54
2059.46
1838.63
1473.80
1471.61
1596.85
1396.60
1560.23
1346.73
1041.99
1185.05
1917.49
1979.03
1149.82
620.09
1090.20
1804.26
2203.09
2215.15
1478.48
1470.70
1442.76
1435.11
1300.20
1362.45
1887.30
1451.18
1887.10
1914.76
1746.36
1823.49
1538.31
1343.95
2141.52
2155.91
1973.54
1313.73
1338.49
1409.59
1806.50
2175.41
1968.11
1557.93
722.64
1620.08
1997.92
1334.50
607.77
670.46
1145.32
1526.33
1649.70
1516.35
1470.92
1573.11
1695.30
1191.64
1445.52
1321.37
621.43
505.84
633.47
888.63
855.17
1164.49
1321.47
1810.70
1737.01
1330.88
1175.39
1075.49
1632.22
1694.46
1952.38
2207.83
1859.60
934.48
480.50
1009.53
1055.76
418.24
555.59
1152.85
1425.72
1297.40
1360.85
1184.60
1358.94
1459.40
1468.62
1306.77
1402.94
1278.30
1354.92
648.91
674.09
444.52
687.06
631.43
861.83
1686.24
2005.81
1887.99
2178.79
2881.46
2660.19
1808.29
1478.34
1469.69
1133.27
1280.31
1138.57
919.24
755.93
858.12
986.71
1460.74
1229.20
1539.63
1401.83
1549.93
1951.62
1950.09
1698.18
1475.18
1433.57
1516.89
1270.10
972.59
767.13
440.88
736.21
951.60
1287.91
1419.69
1499.84
1179.86
2100.75
1946.15
2342.00
1919.57
1499.49
1370.93
546.08
696.70
1338.67
1577.87
982.46
2181.53
573.84
1189.77
1363.92
1384.66
1253.87
1188.34
1287.33
1388.78
1453.67
1457.15
3192.44
485.56
449.62
735.46
559.11
774.51
875.98
1341.77
1631.50
1679.70
1270.42
1203.27
1811.33
1287.91
1683.69
1570.90
2072.57
1616.40
893.52
671.06
699.47
1017.56
944.25
1461.79
1601.88
1198.96
1134.18
1070.82
1355.53
1578.94
1645.13
1416.29
1700.01
1484.70
2477.04
1893.59
2001.39
971.67
733.17
1503.94
1512.67
1381.52
1715.71
1909.39
1862.89
2993.08
1568.49
1449.97
1400.44
1221.30
1027.58
990.49
881.07
394.99
625.16
572.05
3271.94
1350.09
1314.03
1236.12
1260.43
1143.20
1485.07
1359.22
1469.19
1233.12
1354.16
3907.88
1044.73
1384.19
2176.49
1890.21
1650.61
1160.89
1867.60
1511.37
1686.85
877.42
2621.31
1307.86
1727.51
1701.43
1702.58
1370.72
639.63
1157.38
2047.45
2134.89
1996.13
2630.95
701.76
1182.75
1448.01
1414.72
1069.06
1211.82
1402.97
1295.61
1278.39
1203.28
816.78
884.29
1236.54
1385.64
1889.47
1805.53
1821.77
1668.52
1790.01
1715.53
1666.63
1445.67
1644.80
1358.06
1271.48
1216.96
1518.14
585.12
696.33
629.80
727.81
594.91
733.67
832.15
1212.56
1390.58
1446.26
1253.10
1453.14
1370.48
1339.95
1258.38
1467.20
1471.33
1041.96
810.96
1300.12
1165.56
639.36
692.67
1088.27
1335.11
1781.70
1672.11
1275.20
1806.10
1596.24
1623.60
1643.53
1599.00
898.89
367.87
578.29
760.07
715.76
590.08
638.24
1303.60
1152.38
1246.64
1472.40
1436.38
1707.83
1408.84
1221.81
1231.04
1375.07
790.53
605.01
564.07
1027.77
1187.01
2126.54
3027.25
3026.58
2645.34
2319.69
2221.39
2468.04
1647.82
1284.41
1854.31
1884.96
2209.33
2042.50
682.51
794.75
655.06
856.22
1225.21
1104.51
1377.03
1080.62
1184.86
1210.70
1267.91
1262.63
1679.04
1397.06
1316.76
1934.89
1901.51
1746.06
995.82
572.50
1885.11
2231.75
1400.89
1468.21
1843.19
2364.37
3456.32
4040.45
4126.77
3688.54
2015.47
1437.28
2212.00
3760.72
4120.48
3715.29
2748.26
2404.64
702.40
1433.03
1189.24
1314.35
1146.17
1371.83
1352.42
1907.43
2038.88
2410.65
3210.48
2601.29
1711.48
1342.19
1085.11
868.40
784.84
841.82
1050.66
1307.99
1149.10
2689.33
1263.33
1358.38
1369.09
1523.58
1443.68
1018.32
908.09
912.74
1334.33
1228.07
2444.22
739.02
1102.03
1342.44
1337.67
1216.83
1156.77
1409.06
1331.56
1336.97
1336.56
3454.28
977.33
1161.03
1264.01
1255.79
1205.65
1215.41
1257.10
2320.71
2168.04
1641.17
3172.34
1423.17
1394.27
1464.04
1198.17
1529.71
1284.61
875.34
790.49
451.65
751.29
3535.99
1466.58
1516.94
1526.32
1748.62
1528.21
1394.84
1223.02
1385.41
1453.51
1432.92
2596.58
1182.97
1081.92
913.20
1026.53
1193.50
990.75
681.77
1045.85
1156.29
1247.51
1085.80
1179.31
1407.24
1220.73
1395.71
1430.03
1492.16
954.31
779.07
688.70
479.47
466.94
779.12
743.62
1315.10
1399.52
1214.48
1162.14
1447.95
1427.73
1365.89
1377.92
1406.56
1194.91
815.56
800.01
1219.69
1879.57
2223.51
1887.30
1432.16
1386.24
1465.03
1275.54
1224.79
1383.27
1609.24
1581.87
1405.51
1431.87
720.35
879.60
846.95
674.83
942.46
963.55
702.54
1460.59
1424.09
1085.54
1152.21
1225.81
1734.57
1656.71
2006.56
1855.43
1672.57
917.36
368.42
1267.24
1492.26
1215.05
838.97
500.56
1415.75
1542.81
1918.80
1770.65
2068.42
1546.40
1566.97
1644.19
1950.74
1655.91
513.29
1106.75
667.29
694.56
895.50
720.89
1337.51
1276.98
1412.44
1311.11
1196.83
1423.62
1701.26
1406.29
1247.39
1515.44
1057.30
963.69
713.33
673.62
706.45
803.90
566.40
1491.23
1647.40
1613.60
3062.06
1442.21
1707.97
1780.59
2015.12
2174.42
2454.68
1836.23
1334.96
616.83
795.21
3884.88
1527.68
1435.19
1800.16
1653.17
1563.29
1191.62
1293.38
1220.46
1329.94
1345.44
4069.35
1173.56
671.52
820.06
1100.38
1022.25
631.68
1127.24
1565.43
1657.51
1680.95
2538.22
1400.83
1720.24
1755.40
1385.97
1864.58
1755.81
1265.81
818.36
462.85
692.31
703.42
799.51
1050.78
1461.27
1420.62
1611.84
1929.81
1927.34
1766.49
1452.03
1697.22
2045.91
1736.22
815.51
676.59
712.99
2062.73
2762.05
2954.91
2373.26
1347.49
1691.23
2618.12
2678.64
2576.48
2587.10
2551.17
1919.72
1720.14
1162.44
641.08
1428.34
1792.68
1008.74
511.86
453.90
753.98
1135.35
1356.99
1211.53
1055.64
1270.78
1433.33
1479.40
1887.30
2162.83
1337.40
1026.09
536.95
932.92
2035.08
2010.53
1163.04
1117.19
2019.90
1831.53
1662.06
1505.52
1639.74
1455.90
1419.40
1551.28
1443.44
535.58
632.02
1133.69
1258.00
1419.59
842.80
456.28
1408.59
1318.04
1452.91
1254.22
1467.93
1319.33
1776.72
1757.13
1727.35
1366.52
1079.04
1203.47
1327.73
970.57
621.68
959.46
917.97
1286.96
1478.85
1334.34
1103.56
1244.94
1945.90
1594.81
1586.27
1627.04
1359.45
961.66
720.57
558.64
1872.11
1272.03
775.58
1191.85
1322.95
1167.14
1302.58
1245.80
1454.50
1179.82
1459.03
1961.49
1375.53
703.70
926.22
1022.35
1111.91
692.23
493.92
688.37
1266.25
1305.24
2392.12
1238.79
1493.48
1800.21
1666.97
1338.50
1742.81
1750.77
1324.61
1117.47
700.47
470.46
853.19
699.02
850.70
1252.28
1411.82
1267.12
1104.25
1207.09
1376.43
1341.68
1435.67
1491.40
1479.63
1504.06
1419.78
960.20
1005.96
915.69
1182.45
1844.11
1812.76
1214.03
1501.35
1197.97
1181.20
1253.99
1471.89
1445.64
1367.33
910.31
1030.94
727.96
622.17
959.63
623.40
677.32
1261.36
1314.19
1386.94
1223.42
1189.83
1366.42
1392.81
1237.92
3178.52
1388.79
1177.40
959.52
1087.33
1803.90
3092.53
3587.20
3296.70
2798.77
1519.14
4196.88
1226.98
1595.94
1722.43
1464.20
1432.09
1684.01
1332.70
740.94
1285.03
2378.69
4126.16
838.83
668.73
1230.88
1264.02
1194.65
1186.53
1168.62
1472.38
1921.61
1865.80
2622.41
1528.31
888.44
543.92
583.67
1211.44
1374.21
619.42
802.55
1232.80
1478.45
1408.37
917.87
1320.66
1389.49
1550.70
1674.68
1358.15
1178.06
484.70
427.81
510.14
768.48
860.55
798.39
806.68
1103.84
1250.92
1239.62
1105.18
1352.27
1325.63
1247.23
1207.30
2053.08
842.69
1062.27
1095.87
715.91
826.37
634.74
592.27
1488.00
2336.12
2302.27
2110.06
2059.10
2112.56
1831.05
2017.21
1621.52
1571.25
700.08
977.18
1794.11
2083.24
2391.05
2495.72
1767.25
1390.05
1148.76
1654.98
1642.65
1756.25
2007.23
1454.92
1330.39
1438.29
1171.59
466.43
462.65
563.31
637.19
448.16
741.33
1632.30
2492.05
2030.56
1415.86
1139.58
1299.19
1642.04
1793.85
1707.95
1618.80
852.04
787.23
988.32
908.06
757.94
681.11
843.25
1643.19
1794.25
2111.94
1372.02
1425.39
2148.64
2371.17
1904.75
1696.93
3520.15
1655.58
917.07
588.33
1044.10
1112.84
1032.50
923.88
1418.42
1626.80
1745.47
3783.59
1335.36
1434.13
1502.93
1566.85
2119.32
1694.71
1230.69
949.58
919.02
456.64
1274.70
792.07
1328.21
1479.09
1416.91
1263.45
1307.15
1221.33
1335.74
1297.94
1523.35
1182.90
845.83
1283.03
1169.50
1023.94
871.30
1169.71
887.00
1545.30
1739.93
1973.18
1129.82
1114.06
1233.22
1269.04
1355.62
1345.55
2280.42
2329.22
2217.65
1427.87
1093.55
920.59
1017.33
673.92
1321.08
1979.86
2137.50
1429.62
1634.05
1506.34
1477.95
1456.97
1584.24
1241.34
865.67
1462.98
1483.62
1052.92
1294.67
1239.93
1194.01
1437.67
1624.67
2231.81
2711.45
2663.61
2432.41
1660.47
1628.38
2045.71
2026.66
1698.43
773.32
650.89
822.03
715.49
640.48
1395.11
1325.04
1353.00
1558.37
1609.93
1934.48
2286.80
1354.83
1381.39
2323.08
2196.52
1632.36
753.96
522.45
721.32
899.61
1141.24
2036.72
1877.92
2184.89
1742.64
1380.07
1509.64
1399.74
1518.26
1695.48
1271.83
639.04
762.31
591.56
548.55
694.46
604.56
847.33
1097.18
1228.23
1196.41
1285.27
1302.94
1228.15
1231.17
1454.71
2238.19
1576.97
2047.83
2441.16
2628.65
2239.51
1273.82
626.01
1245.41
1384.61
1250.54
2407.06
1247.95
1441.26
1330.23
1246.65
1334.84
1437.45
823.61
686.76
764.64
845.43
2005.91
783.71
1023.21
1139.25
1395.92
1369.77
1279.95
1424.74
1214.00
1269.51
1181.53
3321.21
1003.99
467.44
683.89
882.38
1039.55
1079.81
1092.56
1461.64
1987.14
1763.06
3663.80
1223.34
1391.37
1553.78
1309.10
1392.35
1346.97
763.13
591.61
772.17
595.89
1407.65
1818.57
2444.25
2760.89
2208.14
1337.06
2658.68
4165.07
4001.72
2238.23
1291.26
1589.44
1630.78
1092.19
725.02
808.62
1356.60
1453.74
586.62
825.28
1879.27
1730.67
2150.27
1850.09
1569.83
1373.88
1435.75
1154.67
1445.32
1384.25
983.52
703.74
495.44
830.91
748.35
601.77
1369.04
1798.28
1313.22
2009.09
1868.63
1506.19
1722.08
1988.91
2012.21
2075.02
1417.02
1911.00
1822.55
1003.29
496.02
1449.53
1786.51
2429.50
2642.74
2387.40
2127.47
1189.26
1220.39
1296.49
1364.80
1220.60
1429.42
578.65
791.00
426.56
522.03
1925.32
612.17
451.59
1423.14
1235.09
1307.59
995.96
1192.31
1354.49
1485.92
1412.91
1367.28
1269.95
703.37
806.99
1566.93
1968.29
1793.94
1397.58
974.88
1443.84
1260.08
1081.80
1119.07
1293.49
1407.22
1474.27
1477.72
1273.52
927.41
858.94
766.69
616.41
831.39
823.27
1321.40
1412.94
1715.73
1384.23
1035.07
1106.02
1191.14
1420.09
1565.59
1338.53
2041.68
657.74
932.53
752.91
975.04
925.08
1194.60
1111.98
1762.97
2058.42
1746.34
3323.38
1360.78
1894.11
1634.66
2132.53
2650.08
2189.13
1558.58
1298.11
474.98
1263.68
4140.73
2639.66
2860.32
2897.96
1900.49
1491.70
1309.47
1267.42
1510.15
1541.25
1390.67
2162.85
805.21
916.70
984.31
386.56
838.80
1395.42
1696.16
1756.03
1842.64
2188.84
1668.15
1418.09
1396.00
1542.09
1427.10
1467.24
1523.38
719.21
693.44
520.00
593.12
573.41
935.88
561.62
1459.02
1156.85
1288.94
1271.10
1238.29
1213.55
1293.52
1151.33
1390.40
1416.84
615.19
439.65
813.22
1996.77
2262.30
1574.50
1472.75
2002.14
1961.03
1655.89
1948.55
1792.81
1614.37
1814.50
1704.23
1253.78
896.90
688.67
521.75
649.03
657.62
2206.92
736.08
1609.15
1782.81
1431.16
1204.82
1039.73
1313.80
1442.85
1429.73
1299.22
1431.13
1027.28
1093.37
894.22
809.07
952.50
1368.16
1402.46
1902.68
1746.13
1487.33
1112.75
1353.40
1520.22
1658.91
1635.55
1768.56
1545.51
634.53
715.47
908.15
559.15
529.12
818.99
818.69
1141.22
1294.41
1105.14
1465.16
2353.37
1973.32
1457.28
1347.59
1611.73
2070.50
1003.99
773.00
676.20
848.37
1033.18
1491.94
2297.92
2777.19
3242.13
2751.39
2269.53
2094.12
1757.27
1548.53
1216.56
1434.03
576.53
739.33
346.71
761.14
1097.61
928.04
845.01
1370.02
1304.35
1215.32
1173.56
1378.79
1235.86
1340.58
1272.63
1249.22
974.96
1530.54
774.22
795.06
999.84
1354.72
1308.61
1717.07
2199.29
2151.09
1517.94
1285.10
1916.76
1462.25
1336.90
1476.17
1507.32
1587.56
1904.41
1901.62
1181.29
673.45
2238.87
3708.53
2762.40
2197.46
1973.70
1685.49
1293.08
1297.66
1391.05
1223.65
1264.08
1470.82
1846.21
1647.72
1832.11
2360.86
2369.23
1484.24
479.93
1227.04
1253.75
1253.56
968.59
2059.02
1369.56
1428.99
1237.64
1787.07
1483.76
709.26
659.02
510.51
561.10
560.59
2057.49
1321.90
1030.36
1296.72
1201.11
1148.22
1307.63
1393.10
1234.69
1880.67
1935.07
2790.88
581.11
1093.08
1150.72
750.44
513.86
1000.69
1709.32
1617.54
1559.68
1507.90
3324.24
1744.41
2083.66
2032.11
1807.36
1582.72
629.44
963.94
1329.61
988.27
493.25
2846.25
1082.83
1411.98
1304.01
1341.25
1109.78
1361.00
1473.25
1604.33
1492.65
1264.69
3474.40
569.01
727.60
795.50
1195.49
1512.41
1233.51
1199.80
1518.29
1589.52
1474.65
1386.88
1234.13
1471.19
1411.21
1490.86
1431.12
873.67
882.64
1186.93
1016.63
1250.65
853.62
1131.16
1268.45
1174.93
1359.50
1614.17
1612.92
1557.39
1454.93
1411.42
1331.79
1263.30
692.87
807.35
779.94
1176.62
1316.53
1359.98
1137.33
1785.69
1530.57
1428.46
965.77
1279.43
1786.88
1398.34
1515.04
1355.04
1293.40
706.47
1017.97
1288.19
1134.13
759.55
700.04
1123.86
1805.11
1801.92
1759.65
1611.80
1585.66
1420.14
1499.50
1698.73
1990.47
1404.08
1322.55
1501.24
1751.86
1908.44
1675.31
1538.34
1804.53
1496.60
1275.86
1238.56
1211.79
1421.46
1255.04
1334.89
1499.40
1447.54
739.68
711.33
750.14
511.00
988.87
1436.59
1437.53
1921.08
1977.34
1755.17
1030.11
1201.79
1453.76
1593.79
1443.32
1558.01
1481.16
958.29
1160.36
1418.56
1451.49
1374.19
1276.46
1405.78
1834.93
1649.53
1305.03
1352.94
1288.66
1755.24
2096.78
2779.69
2548.96
1379.07
562.33
1925.35
3036.34
3162.93
2852.68
2146.83
1404.96
1264.72
1121.09
1209.51
1148.25
1323.54
1391.75
1367.72
1175.88
1896.34
1439.14
1547.18
1602.53
1452.11
1465.28
1210.38
841.79
1593.00
1419.93
1396.50
1420.26
1213.77
1494.82
1406.32
1596.05
1787.63
1187.08
690.36
459.54
492.03
659.64
1389.36
579.32
703.58
1272.87
1370.87
1308.56
1142.95
1137.54
1449.24
1372.15
1689.55
1490.08
904.44
849.59
513.21
687.58
556.91
689.24
569.74
1140.05
1422.64
1231.32
1862.43
1133.75
1762.67
1445.00
1576.74
1423.07
1690.82
975.36
770.04
573.03
699.90
1396.84
915.42
878.38
1458.21
1554.95
1465.41
1069.51
1343.15
1310.77
1466.03
1326.27
2259.51
1094.01
656.29
777.34
654.67
915.66
1085.90
1245.13
1312.05
1454.27
1723.44
2340.33
1277.62
1472.57
1528.19
1396.19
1447.11
1419.57
737.28
775.58
602.51
349.50
1725.76
583.47
816.88
1286.58
1331.64
1414.32
1172.46
1315.81
1405.39
1253.28
1394.03
2980.85
1617.63
702.76
650.69
588.78
744.73
959.99
982.06
1558.73
2470.98
3013.01
3376.45
2736.17
1975.28
1418.76
1565.09
1688.90
1646.27
1274.12
621.55
569.60
492.29
431.72
764.96
544.17
980.33
1559.31
1411.19
1294.71
1214.72
1327.84
1220.49
1356.70
1202.09
3150.12
1033.28
1228.23
1734.79
1802.86
1266.12
685.93
786.93
1246.61
1234.57
1406.18
4170.74
1075.05
1368.85
1364.68
1654.52
1787.80
1817.59
1437.01
1479.23
1195.01
737.82
2868.40
811.72
770.59
1417.03
1897.30
1644.38
1165.27
1232.45
1284.34
1426.42
1356.74
1872.45
1142.90
695.68
681.74
517.75
560.91
768.16
1005.49
1165.49
1775.31
1743.14
1330.97
1157.55
1294.49
1444.14
1448.22
1452.75
1452.32
834.81
599.19
477.34
635.15
923.25
1043.34
778.63
1334.82
1370.45
1553.94
1179.87
1111.03
1481.60
1384.37
1199.57
1301.89
4154.45
737.76
958.51
1083.32
1281.34
1175.83
1214.10
1175.99
1764.02
1614.37
1822.81
3013.30
1628.56
1685.46
1838.31
2007.36
1650.71
1168.46
1095.99
936.75
527.51
383.82
2861.48
795.49
737.38
1250.06
1246.91
1201.33
1166.20
1281.34
1202.11
1266.54
1445.29
1357.95
593.04
801.11
639.24
742.28
678.28
641.21
713.36
1251.12
1750.02
1923.29
1807.52
2128.04
1757.21
1446.81
1510.29
1725.66
1609.13
737.27
584.31
707.55
1222.24
786.32
2145.84
1184.75
1498.13
1283.30
1380.77
1298.69
1937.50
1289.27
1385.13
1232.68
1479.71
3305.21
978.94
705.89
737.22
1206.33
1366.78
1051.69
817.05
1380.60
1774.78
1615.62
1425.54
1363.67
1430.18
1244.70
1674.63
1526.75
1212.62
1123.81
1036.64
618.55
496.10
1211.14
1226.74
1206.89
1453.07
1506.09
1309.38
1164.18
1245.83
1238.15
1295.99
1379.66
1377.54
965.73
1379.21
1596.73
1438.86
984.71
704.55
566.48
1931.27
2665.84
3008.24
2610.36
2592.98
1889.55
1494.39
1207.91
1607.96
1369.07
744.95
687.98
1264.87
1397.71
899.65
1138.71
2465.36
2852.25
2222.09
1599.33
1198.55
1258.29
1473.14
1403.59
1619.51
1307.25
1516.95
2079.42
2358.47
2504.52
2000.19
1622.72
1524.78
1747.32
1519.37
1224.27
1135.14
1292.94
1419.68
2018.90
2316.88
1584.15
1461.75
699.12
623.37
704.40
912.55
764.55
1034.28
442.38
1366.28
1125.70
1297.37
1188.01
1279.62
1236.29
1498.56
1358.69
1383.14
1422.72
700.70
997.00
967.05
705.77
800.28
943.09
985.53
1402.67
1594.64
1523.02
3401.72
1923.45
1886.63
1672.81
1507.79
1293.09
879.45
693.48
904.63
564.56
565.58
614.31
905.56
975.96
1226.39
1390.10
1232.60
1198.48
1402.64
1241.46
1449.18
1341.24
1436.52
1731.33
788.64
794.09
684.99
473.93
988.24
1110.44
2097.80
1947.72
1589.07
991.95
1243.89
1233.75
1407.51
1376.04
1409.41
1198.45
834.56
801.55
962.30
875.86
1102.91
1132.22
1477.88
1381.24
1413.72
1527.87
1538.16
1887.77
1716.07
1505.67
1534.12
1859.29
1420.28
929.36
398.80
554.62
791.91
569.59
756.28
1401.01
1804.60
1759.01
1457.32
1423.69
2148.43
1664.79
1601.00
1623.90
1466.48
773.50
804.37
770.67
577.91
787.94
862.58
2919.50
1345.02
1392.84
1224.50
1232.31
1737.29
1266.55
1224.13
1614.60
1511.06
1322.80
438.43
897.59
2008.57
3046.06
3309.26
2682.67
2165.27
2761.37
2427.37
1398.75
1372.86
2659.61
3146.56
3095.78
2241.49
1564.19
1014.17
783.49
703.63
664.54
548.75
695.62
690.41
1351.31
1260.13
1392.70
1255.03
1226.90
1420.26
1309.98
1276.82
1247.46
1438.68
808.59
1918.33
1488.27
1787.67
1496.78
1348.30
902.63
1570.09
1533.83
1362.69
1121.52
1265.81
1999.44
1560.87
1566.06
1453.89
1329.33
611.88
511.33
616.01
547.35
824.72
969.37
2741.43
1587.65
1380.99
1278.68
1132.49
1187.80
1323.50
1365.63
1393.01
1351.86
836.77
2172.50
1453.25
900.44
576.20
739.61
702.04
1438.75
1557.48
1618.66
1678.36
1572.51
1730.75
1579.33
1392.52
1403.31
1538.56
796.10
711.81
675.94
652.48
663.70
599.77
812.07
2075.52
1387.13
1402.01
1370.48
1283.35
1343.17
1434.71
1557.55
1587.35
1270.45
578.68
2156.84
895.20
1205.42
1130.67
1337.06
1452.06
1539.86
1756.94
1833.24
2083.52
2086.99
2845.77
1921.16
1720.07
1392.22
932.28
981.62
858.53
866.65
748.43
542.03
595.06
1152.69
1403.02
1271.87
1157.60
1232.48
1606.50
1878.01
1528.90
1401.40
1347.21
732.40
573.82
798.90
911.74
1176.43
1743.79
1512.52
1827.31
1402.73
1574.19
1115.56
1354.11
1474.91
2111.84
1657.40
1658.29
1456.24
1068.54
1288.53
930.36
629.32
770.28
1079.58
1366.72
2066.34
1144.55
1272.60
1256.82
1342.56
1597.99
1650.61
1892.97
1859.61
1260.39
941.33
1731.23
961.38
1112.62
705.62
785.92
1261.09
1311.01
1269.09
1222.44
1418.58
1462.63
1695.95
1570.38
1429.79
1595.35
537.66
786.89
549.08
518.68
626.02
1437.45
2141.35
2767.81
2106.36
1287.21
1201.70
1495.60
1499.70
1427.25
1265.57
1458.26
1203.57
797.04
1041.34
1421.02
1421.14
1607.84
1402.75
1172.94
1715.73
1423.17
1257.09
1296.56
1724.43
1841.63
1772.32
1914.60
1850.95
1451.99
1025.28
1012.04
849.92
643.56
705.08
1024.02
2112.97
2154.10
1503.18
1204.28
1253.96
1311.81
1271.46
1414.14
1235.49
1215.61
650.93
839.99
660.74
524.52
648.79
885.45
685.94
1419.87
1136.53
1499.43
938.87
1440.64
1835.77
2275.32
2389.15
2233.68
1713.11
1017.85
896.79
683.14
823.50
1210.95
939.76
823.17
2190.89
1453.43
1119.09
1086.74
1214.43
1544.62
1372.67
1396.24
1321.67
1060.06
1242.02
3230.28
764.62
843.39
1023.00
1396.69
1915.20
2608.38
2613.10
2210.64
2235.80
2407.02
1903.52
1641.47
1279.58
1471.36
692.74
663.37
703.16
642.03
756.86
685.02
627.96
1215.21
1932.54
1286.77
1051.92
1206.16
1400.52
1402.66
1303.58
1432.88
1217.84
799.59
754.23
1769.42
1180.08
848.55
712.65
630.99
1648.09
1521.58
1592.96
1348.91
1456.83
1575.11
3129.40
1628.04
1614.99
1107.43
858.24
1008.83
682.62
740.09
528.48
675.19
1363.20
1390.18
1471.82
1296.96
997.73
1196.23
1338.31
1530.54
1280.59
1467.40
1219.65
1524.53
1521.52
1764.35
1675.31
1875.11
1527.49
1791.19
1406.48
1295.42
1722.73
1285.85
1308.99
1419.68
1698.10
1511.83
1599.15
1128.62
535.77
969.26
942.53
1048.26
1066.86
1003.83
1586.99
2228.83
1171.29
1152.69
1256.00
1499.63
1347.34
1479.95
1667.40
2017.61
1542.61
859.25
1361.80
433.33
529.34
866.83
1152.18
1222.69
1400.79
1911.94
1860.96
1775.26
1546.23
2308.37
1358.94
1387.74
635.22
481.46
563.94
699.11
782.96
854.44
859.03
1475.66
1219.17
1305.80
1202.97
1215.95
1305.11
1216.76
1290.94
1430.61
1299.37
550.20
639.11
701.96
754.70
1176.00
1227.81
1097.14
1440.02
1648.55
1765.70
1462.31
1402.55
1448.24
1440.85
1756.49
1285.96
820.96
617.61
773.49
679.39
628.80
820.42
904.14
1153.40
1337.78
1382.76
1331.17
1237.01
1357.64
1096.36
1313.43
1436.39
1272.09
581.00
975.75
1002.76
1082.51
1308.38
1212.34
1333.07
1934.32
1954.83
2069.65
1343.59
1429.38
1401.99
1486.64
1413.00
1465.08
1386.98
582.13
800.18
530.45
480.74
633.55
518.40
1001.74
1219.88
1574.04
3164.50
1208.03
1138.93
1371.52
1280.65
1527.30
1359.64
811.62
483.70
611.37
948.06
2551.40
1219.29
1394.74
2026.43
2271.07
2091.21
1709.67
1442.91
1737.03
1755.76
1545.19
1966.33
2226.44
2248.24
2249.76
1048.69
1446.19
2146.54
2057.34
3008.60
4123.47
3199.31
1749.11
1244.03
1415.92
1380.26
1303.24
1479.17
1351.12
1401.78
892.14
884.58
825.49
1340.90
1485.69
1348.96
1256.01
1814.03
1631.36
1248.61
1023.57
1020.96
1297.76
1369.07
1694.84
1669.97
1034.56
616.96
601.72
768.00
1286.50
1335.21
994.54
1087.65
2228.49
2604.05
2323.51
1476.37
1282.00
1267.03
1430.75
1405.31
1382.76
839.27
708.28
734.53
1249.31
1616.81
1989.41
1999.19
2720.53
1858.37
1668.21
1047.34
1105.58
1301.96
1406.22
1169.40
1560.20
1279.98
477.37
532.39
816.44
738.93
782.84
727.34
798.59
1314.21
1219.24
1789.99
1154.29
1283.94
1413.97
1485.97
1614.47
1548.06
877.23
669.78
788.56
689.23
1929.07
930.36
686.56
1136.90
1359.08
1758.17
1638.63
1305.49
1645.21
1631.02
1467.86
1400.30
1423.28
773.46
554.44
827.79
482.62
416.37
713.58
870.33
1154.34
1150.09
1184.82
3231.58
1331.62
1243.88
1125.79
1359.42
1473.99
1370.45
577.44
593.25
706.10
824.88
2302.41
879.73
823.16
1563.07
1887.33
1898.44
1415.55
1418.17
1379.89
1328.13
1201.90
1398.23
1100.87
491.64
889.57
779.54
780.27
460.79
737.90
1117.20
1175.63
1256.78
1268.69
2969.91
1415.47
1346.19
1361.29
1408.46
1338.42
780.01
968.21
841.42
1209.76
1328.50
3428.39
1208.10
1665.15
1498.76
1319.40
946.32
989.36
1430.21
1189.68
1331.21
1280.92
2932.34
540.77
669.34
557.58
741.13
587.03
959.98
1053.56
1392.19
1183.53
1692.49
1579.48
1756.45
1367.02
1206.60
1206.26
1362.47
809.30
931.80
1507.27
1251.32
847.29
774.93
1779.44
1466.43
1497.68
1427.88
1325.70
1167.35
1520.46
1599.33
1344.20
1214.51
1219.31
2509.43
1019.96
542.21
915.90
1141.86
896.10
988.12
1272.25
1310.56
1276.79
996.41
1299.06
1116.69
1357.51
1388.71
1602.78
1352.42
864.11
1049.89
929.91
818.90
564.71
502.66
799.40
1221.72
1338.09
1289.01
1159.11
1789.73
1988.18
1871.57
1668.46
1260.35
830.63
1814.04
1018.30
1337.48
1490.38
1060.36
940.55
1130.37
1731.18
1976.00
1823.62
1289.88
2958.38
1266.53
1153.72
1259.14
1460.06
659.07
469.94
587.94
546.75
911.69
1098.59
1255.22
2258.20
2268.82
2185.96
1238.77
1219.57
1200.02
1257.91
1254.82
1444.26
1254.96
814.85
988.77
1306.71
828.57
534.80
626.84
679.88
1312.57
1326.87
1226.04
1026.81
1287.66
2136.71
1507.88
1599.64
1625.60
873.16
493.71
722.87
362.00
444.61
930.61
822.54
1242.76
1589.01
1238.03
1168.62
1081.10
1170.79
1422.56
1475.73
1647.27
1951.32
1232.61
798.32
610.37
399.58
593.33
589.84
680.62
1327.39
1336.45
1372.61
1121.43
940.05
1232.91
2216.92
1439.86
1500.19
1350.76
589.97
522.87
623.10
1045.08
1043.43
756.17
888.38
1821.01
2016.70
2306.28
1979.87
1509.42
1482.02
1483.37
1449.94
1598.98
1048.56
645.09
776.66
653.95
574.25
814.01
577.53
1095.31
1108.60
1282.04
1032.60
893.76
1055.28
1322.57
3168.29
1317.03
1616.11
1580.45
1601.34
1424.56
1354.12
1319.22
1128.60
988.97
1477.49
3201.22
1322.00
987.01
1215.76
1313.43
1178.56
1251.55
1319.90
1381.97
864.31
759.49
3373.10
627.08
794.58
536.49
593.44
1232.58
1140.50
1121.64
981.51
1310.65
1220.38
1178.34
1292.21
1286.27
1242.19
509.66
803.21
781.61
793.70
1234.01
1306.54
1328.16
1528.25
1989.07
1696.65
1680.52
1796.51
1430.37
1401.44
1122.09
1242.20
661.74
492.74
505.28
1395.89
525.18
629.55
654.30
1298.46
1280.67
1312.20
1184.17
1048.02
1252.70
1627.19
2656.35
1688.90
1510.00
1014.52
740.88
403.80
829.57
716.77
611.03
585.38
1403.19
1767.56
1945.97
1538.31
1286.01
1654.83
1480.45
1445.60
1381.42
846.59
332.84
592.66
1158.93
2259.89
454.55
958.71
1465.46
1355.02
1806.47
1867.70
1519.93
1203.33
1451.62
1563.10
1954.49
1740.02
1006.10
523.89
381.49
473.00
655.05
909.68
1054.62
1885.36
1767.69
1661.89
1389.58
1089.83
1324.54
1342.01
1441.77
1616.98
1494.96
1092.35
727.40
662.11
526.32
1468.92
598.83
555.78
1114.41
1134.88
1320.12
1175.83
1355.01
1481.45
1402.16
1498.00
3358.97
1394.32
1079.00
838.62
843.19
879.42
874.13
988.54
1452.54
2191.35
2492.61
1912.33
1199.28
1419.73
1018.47
1295.82
1273.27
1513.64
1387.71
1790.92
1916.40
1399.58
402.93
1327.62
1841.69
2891.30
3132.04
3269.82
2532.56
1372.76
1212.96
1775.70
1970.15
1735.42
1603.61
700.86
641.73
592.08
596.51
409.69
625.19
939.24
1741.22
1542.67
1553.14
2015.56
1564.42
1600.03
1360.26
1566.68
1270.67
846.85
627.50
733.76
717.10
692.19
1661.49
433.17
1151.78
1438.18
1422.82
1413.93
1118.75
1456.15
1564.57
1603.52
1709.24
1688.74
1119.94
1282.68
1000.62
534.87
590.05
703.16
863.26
1426.56
1556.63
1578.28
1293.82
1628.37
2013.30
2199.19
1752.13
1654.03
1415.32
817.91
418.54
544.81
467.58
428.34
1391.13
735.59
1233.35
1121.53
1199.36
1216.43
1181.10
1242.12
1238.67
1476.18
1189.86
3225.32
635.52
759.33
890.75
719.14
388.19
640.51
873.67
1536.74
1646.49
1970.04
1515.28
2033.04
1438.67
1407.36
1326.60
1525.02
921.54
635.93
551.72
646.85
589.17
765.07
3541.61
1234.74
1277.18
1085.33
1113.69
1105.74
1008.95
1350.00
1109.75
1370.76
1385.71
1933.33
2735.77
2926.99
3186.27
2457.03
1096.43
563.49
1199.88
1349.12
1165.60
1150.23
1121.05
1590.37
1118.17
1322.55
1290.71
1515.22
1295.02
1216.01
535.27
1341.49
1989.30
1799.48
1355.22
1486.44
1420.41
1451.29
1325.98
1187.01
1336.72
1326.40
1293.87
1413.76
822.76
1150.17
1177.20
1572.85
1308.46
1400.61
1366.94
1575.98
1632.95
1788.03
1915.96
1996.64
1952.34
1406.73
1233.25
1385.82
1328.84
1014.22
1783.91
1497.50
452.83
647.62
415.19
763.01
1068.20
1186.17
1333.41
1193.79
1137.11
1229.46
1217.87
1487.12
1618.90
1567.10
1814.66
1539.33
1293.25
847.27
674.50
720.88
901.08
1831.77
1665.59
1434.98
976.99
1529.91
1472.42
1365.45
1424.81
1514.62
952.49
1436.65
1287.71
1019.86
845.90
607.08
760.52
1362.69
1541.59
1326.69
1125.42
1126.33
1409.63
1474.45
1433.98
1284.44
1434.73
1917.33
2648.78
3529.01
2736.61
1830.15
627.18
1197.14
1263.49
1429.54
1463.14
1412.20
1436.05
1400.93
1486.62
1421.97
1311.04
1025.38
787.61
808.17
519.89
781.42
468.36
1645.73
818.50
1330.31
1897.15
2646.15
2818.14
2155.63
1337.46
1243.03
2303.62
3410.51
4018.49
2523.44
1555.29
630.66
909.55
1159.32
1726.33
2471.41
2161.85
2262.97
2351.21
3194.89
2780.43
2781.79
2413.82
1856.86
1408.34
797.56
1114.72
1278.13
1070.55
677.78
1462.80
1803.27
2207.43
1815.92
1358.98
1021.14
2778.01
4176.59
4124.45
3234.34
1907.48
1915.10
574.98
1313.80
2059.24
2358.11
2239.50
1714.75
1589.64
1466.74
1626.01
1690.64
2325.74
2138.30
2748.12
2826.39
2491.76
1912.02
577.22
1398.60
2856.57
3553.70
2415.62
3524.98
1454.19
1670.07
1468.97
1186.73
1273.76
1406.58
1334.74
1675.82
2146.95
2266.10
3142.09
1085.12
817.61
836.83
640.12
791.14
1249.68
1161.75
1287.03
1372.00
1713.96
3006.84
2088.62
1944.97
1718.73
1446.38
1489.16
787.61
538.80
559.61
462.72
617.22
3370.32
820.51
1352.41
1237.61
1413.96
1216.65
1195.33
1185.26
1414.85
1383.10
1240.11
2266.92
1019.27
729.21
324.63
997.43
1127.69
1357.23
1186.74
1609.26
1767.17
1655.68
1460.31
1223.51
1580.31
1511.10
1391.47
1364.66
1485.82
1079.77
990.15
911.50
823.84
548.05
486.72
638.27
1518.46
1198.43
1522.21
1112.74
1277.41
1381.39
1649.67
2036.65
2045.27
1231.21
694.19
1009.04
706.98
558.98
767.84
766.26
1145.20
1315.64
1378.45
1318.63
1331.48
1700.76
1549.89
1759.45
2035.43
1769.08
831.28
641.65
189.19
700.64
819.06
1624.58
1947.74
1604.34
1327.33
1473.52
1445.18
1781.64
1924.25
1748.96
1718.90
1466.20
1460.26
579.15
612.95
1034.83
1121.56
599.27
808.55
609.48
1360.04
1242.45
1901.59
2115.32
2755.97
3595.46
4036.28
3610.09
2675.04
1308.32
1254.68
1823.66
2203.70
2330.42
2029.16
1039.26
1426.62
1340.19
1423.65
1182.78
1335.55
1448.55
1386.01
1428.91
1418.56
1422.46
757.29
1231.30
954.38
1277.58
1341.81
1979.44
1678.46
2691.07
3533.61
4174.03
4150.04
4133.19
3281.68
1409.67
2468.53
3666.72
4157.16
3454.93
2829.13
3268.93
2395.33
612.87
725.81
1117.85
1427.77
1295.77
1385.67
1157.71
1387.04
1246.64
1323.52
1393.86
1600.96
1325.25
951.79
778.26
515.82
620.18
753.99
764.25
1274.23
1745.48
1727.42
2076.60
1730.32
2142.98
1503.04
1394.03
1627.87
1553.28
606.47
626.89
347.53
490.65
928.49
663.85
674.74
1520.36
1464.79
1480.64
1338.41
1408.12
1715.33
1932.71
1816.13
2206.80
1406.23
634.10
479.36
490.28
798.30
1021.74
1026.24
1075.51
1507.90
1523.95
1923.91
1363.47
1658.80
1587.31
1355.62
1433.57
1271.34
1389.89
906.18
1052.04
684.52
1707.10
906.53
653.26
1430.94
1882.59
1655.36
1423.85
1155.50
1243.12
1744.95
1794.87
2164.64
1482.02
606.84
700.79
551.68
633.91
766.34
619.89
632.02
1568.06
1547.08
1833.40
1509.19
1683.89
1413.73
1435.09
1397.67
1698.64
1579.72
708.60
468.60
378.15
527.28
943.68
506.86
994.67
1207.21
1411.41
1278.80
1218.50
1167.61
1337.02
1514.23
1743.80
1443.52
1394.82
695.30
565.34
497.04
694.75
635.54
1031.83
1682.06
2254.01
2825.43
3032.65
2497.35
2266.60
1809.23
1833.85
1540.83
1614.46
569.48
684.44
663.50
572.56
611.12
1847.35
606.46
1322.19
1122.96
1313.67
1508.68
2420.43
1653.78
1263.01
1442.82
2169.65
2231.60
1662.84
945.46
821.20
469.46
659.04
971.76
770.65
1442.84
1374.75
1583.38
1322.01
1762.83
1614.81
1447.54
1851.94
1740.38
1287.60
873.26
907.72
1553.52
1432.09
751.85
1716.90
1173.50
1495.84
2482.99
2591.93
1702.37
1222.97
1473.59
1394.07
1510.32
1446.89
1550.82
1091.98
861.33
756.48
505.35
540.85
633.13
1331.72
1678.76
1590.78
1487.86
3268.23
1968.67
1851.11
1483.16
1422.73
1394.55
715.91
767.26
591.44
531.36
613.19
838.86
931.25
1238.34
1137.81
1445.26
1349.69
1411.82
1198.33
1400.53
1478.64
1410.78
1213.81
1392.51
1182.77
1288.28
1367.12
1266.60
1373.69
1956.63
1844.36
1834.04
2490.58
2778.74
3420.93
3652.82
2388.08
1412.07
1467.53
1129.67
1855.99
1471.55
1430.97
1348.24
631.59
1444.10
1323.52
1552.26
1657.35
1280.47
1355.18
1293.62
2032.83
1686.07
1400.17
1227.58
2046.28
808.21
884.85
547.73
586.61
632.63
841.18
2125.08
1999.56
1812.06
1415.24
2279.84
1728.16
1474.56
1387.34
1386.48
1415.49
721.10
580.77
574.72
509.91
473.08
2207.42
1647.50
1446.26
1448.37
1338.80
1073.03
1405.84
1272.36
1753.58
1598.80
1562.22
2631.90
1409.40
1101.61
1085.33
900.50
1022.02
706.58
1582.96
1439.26
1323.43
1248.94
3612.65
1176.66
1444.77
1254.39
1723.49
1438.76
717.56
616.06
595.88
719.61
553.72
3418.83
845.99
1448.76
1454.97
1322.16
1283.75
1177.01
1530.69
1762.18
1787.06
1574.62
3979.02
1116.62
1112.44
528.64
452.97
459.08
512.85
1728.64
2736.20
2715.54
2318.67
1700.76
1385.42
1390.32
1297.05
1448.57
1360.79
900.14
634.04
578.47
713.32
577.60
741.09
767.75
1230.67
1485.70
1446.21
1290.91
1424.87
1745.91
1499.18
1305.80
1404.67
1308.75
1626.58
622.52
615.81
666.80
1280.93
1764.52
1472.36
1858.13
1500.84
1464.50
1224.04
2902.58
1442.79
1332.76
1244.33
1398.00
1425.05
955.67
1111.48
1045.69
1113.41
1249.74
2594.48
1437.30
1565.14
1507.17
1455.53
1331.51
1420.23
1295.77
1393.63
1294.07
1440.56
3174.93
822.69
844.04
1151.70
914.81
860.12
747.33
1195.32
1503.99
1848.65
1438.11
3558.14
1622.53
1418.57
1341.84
1347.22
1415.04
1011.56
1070.48
1151.69
1014.14
579.84
1222.44
1675.39
2917.69
2579.59
1770.60
1159.26
1233.36
1462.64
1442.10
1349.70
1448.05
1257.77
568.39
546.42
1102.67
1434.26
1666.92
2591.32
3034.36
3144.81
3520.64
3046.13
2688.90
3105.54
3181.75
2172.20
1295.17
2031.50
2934.70
3636.16
3159.99
2881.31
2559.91
2284.11
2007.09
1709.32
1459.76
1370.03
1280.88
1293.97
1251.34
1594.52
1702.91
1681.95
1498.09
990.96
889.74
1162.18
1140.90
1120.86
1329.02
1541.54
1937.16
1952.26
1712.89
1406.66
1405.52
1552.22
1338.34
1412.70
1390.66
1386.29
703.75
1060.75
837.80
850.17
681.54
635.21
984.20
1628.17
1582.24
1382.01
1272.25
1475.93
1278.33
1512.64
1887.31
2151.22
1560.44
1096.06
561.12
1303.14
1849.04
1714.60
1243.52
1331.91
1400.30
1644.96
1410.00
1913.63
1883.59
2039.71
1884.56
1781.24
1635.04
747.37
618.91
452.45
718.10
569.66
613.19
1015.00
1220.51
1498.36
1579.32
1524.85
1308.07
1474.33
1554.20
1477.33
1360.16
1353.52
1303.99
1481.18
1477.63
1703.00
1533.90
1450.97
1387.83
1638.39
2133.13
1986.06
1678.88
1944.45
1497.05
1528.90
1548.59
1809.82
1279.32
641.67
1153.72
1731.28
1852.41
1972.99
1344.71
1537.77
1404.96
1394.10
1404.61
1498.98
1367.05
1420.13
1248.96
1317.75
1701.94
591.34
524.91
871.54
1199.74
1457.26
2255.75
2438.28
2593.22
2128.22
1360.00
1399.59
1470.71
1276.94
1255.24
1468.02
1641.61
1620.85
1114.68
844.00
655.43
1054.58
1541.36
619.98
1240.97
1341.30
1453.83
1610.24
1252.60
1263.50
1426.10
1403.11
1412.58
2334.97
697.67
743.51
818.06
1140.52
1196.42
1415.53
1036.29
1589.54
1502.67
1558.16
1765.87
1477.75
1448.34
1599.26
1369.05
1501.14
1640.72
1198.04
1091.82
1107.72
961.37
1908.95
694.05
707.90
1160.58
1485.03
1272.58
1278.02
1116.52
1519.88
1800.26
1683.86
2368.03
1360.06
896.84
1511.59
1568.62
1510.63
920.12
676.43
916.62
2170.21
2213.83
2719.63
1759.41
1357.48
1437.56
1410.30
1433.08
1527.13
927.68
758.41
497.67
671.94
2421.70
500.63
976.44
1404.40
1624.73
1395.69
1201.67
1568.29
1184.94
1464.57
1399.85
3491.95
1377.24
1022.31
1080.43
1166.16
1064.30
1018.79
604.07
557.63
1528.89
1800.58
3258.01
1368.48
1419.18
1769.35
1711.66
1538.63
1738.84
1676.91
766.65
767.44
642.81
3183.80
423.58
646.56
1412.14
1388.96
1466.06
1537.75
1483.41
1294.31
1167.35
1535.75
2277.43
1422.66
638.13
475.17
420.56
1143.63
1745.27
2010.43
1852.80
2749.81
2267.91
2550.67
1400.52
1264.93
1529.16
1380.69
1341.10
1465.26
1183.70
681.51
590.78
1031.58
1113.01
962.11
561.54
766.48
1312.86
1671.94
1338.40
1291.21
1093.60
1679.49
2019.24
1910.09
1447.08
1336.99
503.63
710.97
388.40
572.99
766.08
1149.69
2129.27
3210.75
3096.52
2089.04
1252.90
1400.05
1300.80
1363.25
1185.65
1358.72
819.45
684.39
697.65
429.99
602.11
944.87
858.80
1437.54
1437.79
1423.03
1184.61
1432.05
1210.59
1315.86
1294.77
1591.83
1610.94
1433.91
1436.34
1178.51
662.21
548.44
681.81
1129.25
1869.82
1678.73
1498.09
1482.50
1296.76
1388.61
1210.24
1539.61
1573.63
1829.89
960.45
1297.88
1068.98
1360.14
1136.29
708.70
1462.10
1453.31
1424.60
1457.07
1420.68
1431.33
1415.97
1626.36
1647.63
1613.47
921.80
623.39
556.43
742.98
469.70
618.38
875.49
2515.19
3037.03
3470.99
2849.05
1936.28
1344.66
1492.65
1965.47
2461.31
1912.59
1087.50
464.02
896.20
1285.89
1033.23
677.25
692.25
1220.62
1364.98
1280.62
1232.40
1473.71
1365.22
1311.33
2437.80
1277.17
1371.52
568.79
767.87
755.13
1122.56
1074.47
1213.74
2087.19
2568.70
2776.93
1896.13
1197.68
1467.90
1450.41
1387.92
1321.63
1437.82
753.73
1032.25
956.73
1999.71
590.77
803.69
709.78
1416.52
1318.56
1410.75
1668.15
1538.48
1398.04
1453.77
1588.87
2124.85
1872.70
1821.67
1871.61
675.61
870.02
1145.87
1165.58
952.05
1385.78
1711.88
1558.77
1423.55
1136.20
1528.88
1223.03
1388.04
1636.49
1714.20
959.85
956.14
533.83
816.19
836.56
639.15
1249.79
1376.15
1228.64
1342.89
1687.63
2074.30
1742.14
1461.56
2002.96
1485.19
1050.22
763.09
693.70
650.19
524.85
951.27
806.12
1759.40
1664.50
1804.61
1959.08
1763.76
2120.74
2004.80
1713.65
1551.97
1403.64
644.43
576.14
416.48
772.50
543.50
663.66
846.55
1611.25
1560.44
1626.56
1440.06
1270.52
1405.72
1370.97
1567.03
2815.31
1546.75
1157.05
1645.84
1519.76
1426.55
1029.67
864.11
1180.29
1740.56
1338.39
3489.35
1203.79
1383.02
1807.38
2006.62
1776.31
1864.95
959.04
823.12
1139.15
1130.14
3684.48
455.70
442.51
1431.16
1327.59
1469.22
1320.44
1270.88
1320.79
1633.51
1406.03
2253.71
1313.46
611.45
772.92
1099.03
967.51
1080.96
647.73
663.44
1330.94
1627.72
2424.59
3021.84
2887.23
2391.94
1742.36
1460.98
1313.81
1566.74
1410.70
719.61
648.15
441.24
660.42
806.77
1092.13
1489.92
1767.37
1531.94
1467.70
1369.24
2036.75
3300.60
3329.62
2461.39
1424.78
595.74
503.61
737.25
707.21
1291.67
1551.00
2510.67
2107.84
2372.73
2268.75
2054.74
1755.32
1422.85
1445.07
1488.82
1520.33
650.46
797.91
541.96
495.31
1639.04
981.50
793.52
1358.74
1440.27
1882.08
1558.93
1322.89
1220.61
1428.85
1438.12
1797.91
1680.12
843.92
726.34
741.63
1109.58
1218.18
1111.18
1459.52
1651.61
1614.76
1626.91
1512.32
1640.55
1348.51
1603.96
1313.58
1381.44
882.20
600.03
492.93
968.88
1326.85
1579.65
1129.99
1464.87
1194.45
1615.72
1721.80
1732.01
1350.71
1529.04
1129.27
1391.70
1509.63
814.30
834.60
778.92
645.37
791.61
1046.03
1090.26
1940.66
1971.73
1975.96
2311.81
1468.21
1462.54
1669.59
1644.46
1644.68
1842.12
1359.82
1789.70
1718.61
1449.93
1565.49
794.67
1343.02
1743.33
1833.65
2309.60
1952.45
2051.41
1553.09
1556.26
1395.37
2571.04
1362.77
1779.15
2355.74
2855.98
2359.44
1570.65
907.47
1679.19
1475.32
1520.51
1897.01
1298.81
1305.05
1344.77
1278.53
1525.42
1293.89
721.81
491.07
561.38
645.89
1680.73
817.41
1019.08
1081.09
1350.35
1229.55
1301.64
1410.00
1258.66
1296.44
1287.80
2866.35
1582.17
663.35
928.41
1316.12
1255.41
1483.44
1541.68
1553.45
2114.25
1928.05
2988.47
1615.12
2333.74
3699.24
4038.75
2385.94
1484.15
1677.43
2715.18
3278.27
3965.20
4151.69
1175.30
678.30
1472.61
1182.79
1378.46
1472.92
1754.63
1561.36
1437.06
1398.22
4102.55
1424.61
833.14
480.45
637.34
949.95
1119.16
1015.14
942.09
1577.33
1533.93
3427.79
1320.79
1371.16
1745.26
2249.89
2361.45
1834.92
1468.60
491.63
652.62
1207.73
1257.23
508.88
696.54
1189.50
1171.19
1348.46
1287.03
1302.63
1375.63
1404.35
1447.19
1997.33
2332.30
2017.46
1464.01
1034.28
634.65
712.64
616.67
738.43
1309.01
1467.67
1765.23
1860.98
1872.41
1682.93
1796.39
1528.13
1579.70
1422.55
725.24
1511.78
713.45
831.06
1550.83
1807.06
1354.37
1489.42
1442.19
3101.56
3212.74
2673.39
2056.26
1611.94
1552.17
1384.64
1382.29
992.02
1361.98
1222.02
1177.05
920.10
628.91
675.75
2045.00
2289.25
2322.96
1727.03
2229.47
2144.85
1931.22
1559.58
1445.18
903.26
870.69
1454.55
1714.39
1494.47
964.83
748.39
2504.62
3005.37
2657.96
1977.85
1530.78
1364.00
1330.76
1246.19
1404.76
1270.74
982.81
1173.36
1575.91
1798.59
1582.77
950.68
669.52
1081.37
1369.96
1452.75
1805.61
1741.17
1797.89
2161.76
1889.38
1406.63
1500.17
542.41
851.55
982.99
1001.41
703.56
876.26
1114.94
1747.64
2015.36
2165.78
1479.36
1547.66
1297.49
1516.72
1806.44
1512.72
1280.41
901.18
811.22
672.29
863.89
1208.86
1778.18
3102.61
3240.69
2939.76
2237.01
1668.93
1434.15
1547.53
1548.85
1521.80
1565.72
677.56
664.19
512.79
956.99
1042.13
721.80
743.97
1395.84
1697.99
2244.55
2123.13
1454.21
1528.71
2968.15
4107.76
4130.63
4117.69
4064.76
4091.17
870.90
4142.60
4185.23
4145.35
4149.82
4145.44
4108.50
1531.68
1197.96
1772.88
1502.03
1838.89
1800.56
1752.40
905.44
569.29
482.74
3612.41
625.74
518.93
566.84
1500.58
1284.20
1361.17
1096.27
1316.26
1267.73
1409.57
1264.86
1373.25
1451.05
1258.15
1287.71
1223.17
854.85
726.74
565.44
765.01
1450.47
1671.83
2395.16
3457.23
4141.78
4066.26
4117.84
4151.02
2765.22
1843.51
778.72
1148.55
3038.46
3592.01
4007.53
3612.61
3253.24
2495.58
1607.86
1337.51
1319.69
1440.08
1228.51
1426.57
1980.66
2012.04
1178.68
595.65
638.57
913.38
1458.34
909.80
780.43
2701.39
4143.03
4152.25
2703.51
1526.17
1405.74
1670.52
2178.81
2194.81
1652.09
647.00
554.60
854.96
636.22
706.34
757.47
659.99
1363.13
1404.98
1431.70
1436.16
1629.14
1277.78
1546.33
2747.34
2030.97
1705.25
867.86
766.97
368.99
1081.95
1978.48
840.72
783.56
2021.47
1791.04
2445.84
2330.93
2263.35
1771.60
1708.81
1640.98
1781.27
1790.57
2023.51
3806.24
4104.64
4128.53
4212.32
2828.06
1667.30
4144.94
4132.53
4127.11
4113.90
4160.50
2908.67
1673.84
1302.90
1411.61
1057.49
700.32
621.68
868.92
857.80
719.10
1007.28
1780.23
2466.56
2974.66
2025.77
1428.22
1603.82
1209.87
1488.15
1657.55
1689.41
1402.42
1081.29
671.50
1065.87
616.16
817.07
1292.76
2154.17
2241.69
2144.59
1826.65
1392.78
1349.90
1706.31
2959.71
3518.01
3556.53
3502.66
3661.46
3984.56
2340.89
818.34
1821.85
2612.15
3680.28
3521.05
3287.76
2382.97
1425.68
1607.05
1902.12
1941.04
1897.65
1241.48
1232.61
1122.91
725.69
631.26
477.88
935.07
1919.24
2011.31
1743.52
1189.42
1472.69
1371.34
1325.47
1954.90
2254.67
2714.43
2473.99
1604.86
668.80
781.08
783.42
881.38
1050.75
1622.34
1577.27
1433.12
1355.33
1821.17
1714.07
1585.48
1567.33
1954.65
2080.84
2021.70
1756.02
1533.42
791.47
542.29
681.67
1804.91
2246.17
1733.19
1621.70
1459.14
1602.69
1441.11
1728.92
1520.34
1204.59
822.60
588.79
617.42
572.46
668.14
601.25
808.37
1544.82
2500.42
2382.30
2526.38
2854.56
2606.59
2344.36
2098.41
1740.00
1590.93
680.49
1444.23
2676.49
1470.22
931.08
551.84
1465.86
1987.37
1366.13
1324.08
1411.51
1789.72
2030.26
2483.36
1560.95
1315.80
1273.33
1331.62
1902.36
1979.49
1422.01
503.68
698.67
1356.26
2547.38
2027.71
2325.52
2331.99
2533.92
2761.85
2729.55
3178.85
2989.47
2451.03
2007.81
2073.81
566.71
870.59
1068.92
1041.32
2760.45
3340.73
2406.71
1545.94
1782.87
1295.08
3358.08
1654.21
1550.70
1839.88
968.68
971.26
807.25
828.55
858.87
863.98
1081.21
2996.18
2045.68
2503.07
1673.70
1343.68
1440.15
1476.64
1986.64
1660.15
1456.58
654.70
3417.87
587.17
506.75
602.37
1285.63
1790.40
1482.55
1259.63
1450.71
1309.29
1556.49
1317.86
1453.04
1437.53
1920.70
1548.02
779.23
452.33
1633.82
2777.15
2282.09
1141.09
1441.94
1325.30
1567.13
1110.83
1466.08
1447.07
1449.00
1462.74
2081.21
1949.28
610.43
667.24
689.98
775.81
1052.27
1233.62
821.19
1245.65
1364.50
1453.66
1330.12
1481.75
1400.59
1439.15
1645.08
1603.77
1487.65
768.62
883.51
912.42
861.25
772.06
592.02
931.36
2022.43
1640.91
1910.91
1620.27
1702.47
1822.41
1650.51
1682.50
1538.31
682.53
588.24
2221.87
639.63
825.32
727.25
480.51
1458.07
1609.87
1324.66
1403.38
1621.08
2373.25
2088.33
1756.73
1630.66
1405.32
1763.22
1865.39
1923.96
1079.17
679.49
998.90
948.28
1749.49
2055.63
2353.22
2459.40
3907.20
4180.13
4139.15
4124.51
2457.18
1386.85
1717.30
2450.10
4160.59
4074.60
2846.46
2147.76
2212.73
2328.08
2017.18
1854.91
1309.94
1439.37
1385.43
1746.47
2033.42
2659.32
2985.50
2794.63
1612.65
614.96
1335.48
2500.58
2269.67
1643.93
1763.45
1997.82
2593.89
2956.94
2518.70
1623.68
1426.88
1727.88
1597.21
592.00
634.41
710.52
495.45
465.02
782.21
1016.08
1383.36
1295.98
1386.52
1222.87
1390.70
1390.18
1802.92
1610.48
1378.59
1202.65
632.36
739.78
715.58
581.63
631.61
763.12
1669.42
2143.87
1746.95
1717.03
1663.63
1632.32
1896.64
1788.78
1995.42
1526.39
879.77
822.44
1995.41
701.83
878.96
638.01
639.03
1443.12
1340.87
1454.01
1400.00
1337.34
1695.80
3444.86
1913.64
1809.75
1896.96
1416.63
1754.48
2375.19
2440.49
1515.97
908.78
1096.64
1916.24
1759.91
1464.43
1364.06
1427.93
1584.75
1572.80
1827.26
1839.67
1598.64
920.06
591.53
876.43
603.35
744.55
628.32
1580.10
1510.11
1592.24
1435.47
1910.18
2191.65
1754.08
1730.04
2864.21
4184.13
3115.31
1538.32
654.08
557.29
1253.53
1376.31
1905.88
3541.07
3873.32
3169.70
2147.57
1793.23
1744.52
1463.71
1645.65
1585.13
1454.19
849.71
556.06
562.59
796.71
1406.91
1421.57
1257.79
1310.38
1341.77
1407.37
1525.57
1747.62
1910.55
1856.97
1734.28
1490.57
1373.14
567.14
1357.85
3123.75
3207.84
1934.14
765.64
1554.32
2073.19
1810.13
1874.53
1794.92
1739.29
1740.11
1336.85
1514.89
1301.91
1325.69
979.60
951.87
679.83
1266.40
1814.43
1410.56
1522.15
1301.05
1259.61
1373.04
1238.33
1386.39
1425.49
1397.05
1604.17
1414.29
953.64
1443.99
1309.54
1723.22
1641.36
1866.95
2465.40
4180.79
4086.66
2433.34
1304.25
2443.58
3439.46
3439.13
2434.46
1674.99
1351.15
676.90
1638.76
2524.47
2276.69
1424.99
778.35
1308.42
2322.74
2268.67
1480.10
1279.62
1374.06
1880.40
1531.03
1387.33
1482.49
829.51
552.56
585.72
499.46
905.62
995.72
1214.68
1981.27
1726.03
1868.65
1712.93
1677.40
1921.43
1713.22
1878.24
1889.53
1586.11
932.80
1407.24
601.83
1235.33
1409.23
1088.04
1171.86
2091.70
2092.01
1444.39
1364.06
1367.01
1818.55
1465.91
1371.27
1364.49
1638.87
1483.82
1658.05
1682.85
1312.41
988.56
1105.22
2367.54
1707.38
1564.57
1417.01
1138.24
1419.28
1987.59
2539.01
3419.12
4085.93
4111.40
3888.22
1736.65
1830.61
3628.23
4100.92
3428.10
3484.27
2519.61
1822.24
1381.30
1135.89
2234.68
1468.09
1587.67
1510.93
1386.41
506.76
704.69
960.07
1152.62
1370.40
2556.74
3222.26
3790.11
2849.92
1949.14
1197.07
1117.53
1685.70
1770.84
1446.42
1328.66
1864.01
3968.14
1975.19
1282.11
736.65
1516.65
1625.31
1333.83
1858.85
2500.98
2753.69
1855.36
4082.54
1480.77
1517.89
1475.38
1552.11
1534.76
2030.71
2171.73
2125.88
1636.87
1912.96
3159.90
2076.66
1562.59
1446.78
1742.89
2443.25
2092.59
1755.57
1682.53
1509.62
1472.27
3393.16
960.49
679.02
574.41
513.90
915.75
1392.71
1538.63
1648.25
2140.59
1740.25
2957.14
2044.16
2470.89
2463.93
2552.29
2003.20
1879.81
1510.33
728.19
533.27
1081.87
1677.96
1428.75
1669.28
1500.20
1710.06
1296.95
1468.89
1577.15
1513.79
1704.70
1699.51
1663.63
1377.02
1047.84
895.21
888.70
606.74
640.03
1593.05
1422.20
1495.27
1560.44
1244.81
1664.86
2189.37
2235.86
2108.29
1980.04
674.16
1656.18
2055.02
1707.49
1487.77
1263.42
855.67
1717.99
1729.66
2126.26
1871.18
1424.56
1789.15
2036.30
1535.21
1431.40
1413.01
777.61
1345.34
1128.81
719.65
533.13
910.59
1440.14
1630.42
1865.83
2044.17
2133.78
1639.07
1460.27
1450.29
1537.90
1738.17
1502.00
1136.51
843.50
679.81
798.57
1018.52
1048.17
1707.02
2223.92
1780.72
1386.58
1131.50
1638.76
1501.60
1640.57
1582.16
1452.38
788.95
790.48
869.87
706.98
629.24
600.70
811.76
1219.90
1557.20
1506.17
1455.23
1585.44
1460.57
1983.23
2305.62
1810.19
1459.92
1049.60
1091.01
1399.47
994.70
955.25
892.26
1169.77
1344.08
1463.20
1187.22
1233.26
1599.33
1641.82
1613.07
1604.54
1512.14
1040.18
506.85
505.16
587.83
583.96
683.59
655.78
1368.61
1487.58
1307.36
1439.15
1635.86
1601.16
1866.01
2177.47
1851.43
1593.93
906.56
1335.59
1526.78
1062.40
668.69
1929.74
2097.98
1448.66
1345.09
1635.08
1512.82
1878.18
1413.87
1543.78
1412.17
1502.18
1633.24
573.92
1007.49
1000.63
1294.23
1209.73
784.58
1305.76
1526.10
1520.60
1559.05
1839.75
1720.17
1636.10
1281.82
1464.31
1476.07
2445.87
3120.37
2425.77
856.61
1534.71
2309.24
2454.14
3186.41
3505.72
3162.14
2554.83
2131.87
1715.11
1360.45
2015.01
1666.54
2722.02
641.08
630.53
1090.03
1186.40
1588.56
1404.17
1032.80
1273.81
1304.74
1431.65
2075.00
2465.19
3196.44
3328.73
3101.00
2144.40
1260.90
1083.16
1611.36
1609.66
1405.91
2030.27
880.62
1189.87
1373.52
1565.37
1457.11
1409.68
1141.10
1652.47
1542.98
1589.90
2457.04
1330.28
830.29
1048.29
912.81
624.82
575.10
590.05
1205.58
1218.60
1241.36
2657.35
1370.71
1422.85
1160.91
1472.50
1365.06
1726.78
1239.04
1140.74
1006.79
1213.23
2834.15
1470.97
629.01
1669.26
1064.05
1517.86
1356.82
1410.86
1870.72
2126.35
1473.91
3810.01
1343.99
742.06
1735.80
2312.26
2414.95
2142.31
1553.25
1251.06
1196.42
1859.64
4055.52
4141.25
4219.42
3632.93
2317.68
1572.95
1466.16
1397.86
1402.61
1065.01
931.11
2575.66
1911.61
1368.76
1295.04
1598.73
1725.61
1815.97
1552.23
1824.05
1518.85
1695.81
1439.86
2189.80
1947.86
1319.73
917.80
1044.02
755.41
868.41
542.39
1649.38
1476.42
1548.92
1339.00
1519.12
2086.21
2139.70
1979.53
1436.23
1444.33
481.16
1027.13
1403.30
962.75
937.98
1045.93
1252.66
1601.23
1921.57
1491.83
1388.66
1347.64
1252.71
1194.64
1419.38
1436.18
1236.81
597.61
375.30
599.70
591.08
914.04
516.81
1406.48
1415.35
1454.75
1544.39
1376.45
1574.47
1446.13
1696.26
1592.65
1660.00
734.32
833.75
969.47
493.48
937.19
575.71
1663.96
3474.35
3669.03
3521.72
2276.48
2143.48
1907.07
2210.18
2238.72
2148.80
1312.20
1033.43
3090.82
4089.21
4163.91
3489.28
3007.89
1781.85
1319.16
1329.81
1582.54
1517.36
1269.25
1704.10
2219.18
2920.41
3251.93
2472.02
1464.57
1074.32
958.13
1335.20
489.27
933.08
1388.03
1446.10
1294.22
1661.82
1438.71
1641.98
1413.97
1561.15
1460.15
1263.60
1112.07
1048.17
884.39
680.96
624.83
775.24
774.31
1518.82
1177.07
1432.61
1173.56
1354.41
1336.48
1288.26
1286.68
1450.53
1425.38
727.02
790.16
922.91
841.43
804.50
561.02
1283.42
2137.59
2412.30
1965.85
1316.29
1379.61
1942.57
1793.73
2099.54
1614.90
836.97
576.77
549.96
711.78
848.77
442.64
888.07
1403.20
957.29
1373.77
1419.32
1237.54
1370.37
1370.23
1851.90
1526.99
1355.46
764.64
598.41
551.82
1396.80
1211.19
958.53
794.11
1829.18
1470.10
1460.39
1423.70
1922.71
1942.63
2273.79
3062.10
3944.04
4051.04
2481.60
1112.17
628.46
1312.12
1748.61
1808.11
2748.41
4062.06
4109.44
1724.05
1453.57
1674.47
1551.54
1621.31
1652.79
1540.39
1264.46
617.82
642.85
1446.68
939.66
648.38
1110.15
2551.47
2589.55
2104.50
1784.75
1838.45
3117.08
4131.14
4092.43
4053.85
3094.67
1074.94
1610.64
3447.83
3428.30
2813.67
2081.43
1609.08
1512.87
2610.16
1418.04
1241.33
1296.57
1224.13
1690.73
1411.20
1186.28
1326.90
1064.25
1727.32
2643.32
1024.28
801.15
638.77
1121.83
1280.73
1548.57
1475.58
1654.22
2546.46
2977.44
3485.78
2534.30
1975.13
1553.63
1243.78
1609.49
1211.07
516.76
1999.25
2738.45
3532.28
4133.66
2676.80
1993.11
1528.66
1453.68
1391.36
1957.75
2537.13
2621.90
1240.71
777.83
3261.14
1215.48
1311.81
1491.43
1868.94
2860.78
2763.45
2363.53
1297.96
1234.76
1193.61
3162.99
1199.66
1270.52
1585.49
459.53
591.89
582.32
439.39
527.58
921.14
1532.77
1324.68
1474.86
1274.57
1071.77
1174.11
1585.36
1563.10
2018.11
1997.03
2378.91
2391.21
1680.96
845.47
553.65
1280.97
1552.16
1168.29
1776.01
1868.99
2029.46
2026.56
2350.07
2170.74
1923.94
1849.65
1899.87
802.43
516.29
1035.31
1477.81
1007.77
839.81
618.38
1409.27
1376.00
1474.27
1060.88
1546.54
1231.87
1478.95
1283.32
1346.63
1317.58
662.21
542.65
790.66
726.42
1012.83
1426.54
1734.98
2466.83
1974.18
1469.77
1386.03
1670.96
1867.32
1627.05
1958.07
2167.75
2306.23
2289.23
2430.39
1204.35
1396.63
3129.02
2760.90
3799.16
2719.33
1833.28
1497.61
1783.64
1513.47
1358.40
1462.66
1649.50
1925.68
1462.67
1451.46
1000.29
583.79
974.83
1055.64
742.98
1603.32
1646.32
2299.83
2523.36
3072.73
3694.00
3478.32
2599.75
2106.66
1586.60
683.26
1246.94
1328.33
1330.79
1809.08
2507.54
2054.78
1427.54
1392.08
1295.91
1379.65
1137.99
1349.94
1258.88
1517.96
1159.57
1604.42
2340.71
2091.94
1066.02
710.39
495.22
822.73
2180.10
2233.98
1474.91
1420.46
1123.21
1604.72
1766.92
1793.04
1758.61
1507.44
738.97
610.05
340.04
497.44
528.35
359.12
671.90
1482.74
1379.27
1506.39
1228.44
1434.54
1359.44
1570.19
1350.65
1414.48
1390.30
875.00
1215.54
688.07
1080.48
1595.29
1965.88
1790.21
2299.29
2397.75
2377.82
2049.01
1894.66
1881.45
1266.14
1532.48
1383.67
1258.48
514.24
530.36
603.03
791.52
717.86
751.27
1718.07
1434.28
2149.27
2376.30
1450.41
1414.60
1487.03
1421.65
1512.39
1820.07
1449.36
2388.56
1205.71
643.66
642.70
903.57
1327.25
2668.38
3182.91
3622.55
4146.89
4111.83
4133.89
3167.23
1389.89
2041.96
2949.22
2535.87
1698.84
558.83
538.16
764.67
566.55
2900.95
2529.56
2718.46
3321.32
2279.99
1508.36
1522.80
1734.68
1619.05
1358.33
1305.31
1926.56
1753.45
2603.59
2218.66
1254.05
590.36
1748.86
2768.45
3096.02
2043.54
1294.44
2857.93
1884.99
2393.22
2439.76
2435.28
1446.39
797.01
315.70
1297.28
1510.57
566.19
2246.86
1414.26
1250.11
1269.42
1453.15
1357.85
1304.42
1476.90
1501.49
1770.95
1599.16
3041.01
837.00
873.48
1432.95
1722.70
820.03
1023.58
2429.90
3349.24
2980.67
2165.97
3652.91
1772.70
1368.09
1309.34
1394.56
1407.97
575.02
623.05
934.53
1598.29
1820.43
2689.58
1421.56
1733.93
2159.59
2039.67
1415.61
1426.60
1360.90
1390.93
1752.90
1717.05
745.68
725.60
998.61
1380.69
1018.47
648.12
738.45
2103.83
2153.58
1994.62
1486.31
1706.96
1741.67
1660.16
1267.19
1775.28
1500.50
1121.17
1321.59
1110.78
876.07
598.29
654.50
1264.24
1117.48
1193.82
1334.07
1397.36
1228.64
1481.54
1478.97
1469.09
1302.63
1268.53
885.32
747.24
1116.14
1333.68
1308.60
1545.66
1601.75
1403.66
1231.51
1413.28
1149.91
1955.28
2488.92
2710.71
2223.39
1697.42
888.43
1093.28
734.60
665.38
431.60
830.51
1108.85
1684.00
1806.42
1989.38
1428.72
1293.63
2265.47
2964.14
2311.95
1496.10
1286.99
607.03
410.96
824.75
1452.36
1484.80
1391.71
787.56
1106.27
1302.47
1494.09
1438.76
1709.78
1718.38
1602.38
1700.71
1412.98
1304.10
759.01
703.00
727.65
1214.27
910.34
967.97
1435.52
1676.83
1790.94
1687.43
1501.86
1243.62
1697.84
1947.58
1891.13
1436.46
943.31
760.86
1129.42
1489.39
1458.42
1679.16
1587.01
2373.02
1980.36
1626.70
1201.94
1573.59
1220.89
1464.65
1365.82
1273.18
1391.18
598.93
649.46
465.02
1094.78
1437.16
1912.11
1485.38
1328.91
1602.21
1585.89
1669.51
1425.17
1246.33
1360.81
1399.19
1314.65
1681.93
1595.27
1474.68
836.09
793.86
803.03
638.52
1300.16
1638.32
1464.35
1771.51
1652.36
1495.94
1450.41
1455.65
1556.75
1741.78
1226.57
1270.56
2193.87
2355.65
2206.57
2220.70
1149.63
1447.52
1959.64
2677.85
2860.55
1808.27
1363.81
1492.37
1280.93
1454.65
1907.12
584.96
880.24
1438.38
738.65
929.40
1649.51
2590.67
4063.52
3132.02
2182.08
2377.84
1472.06
1683.15
1533.32
1750.21
1857.83
2273.39
1579.12
725.27
282.37
1093.36
2248.30
1955.31
1735.15
1758.64
1633.40
1194.15
1303.73
1458.11
1506.12
1537.63
1408.48
2564.50
678.16
997.89
819.89
512.43
442.39
1305.49
1425.93
2476.46
2820.09
2864.06
2387.76
1253.63
1423.27
1439.79
1359.25
1396.97
1600.61
1153.53
890.78
692.53
566.14
2582.29
647.06
1086.65
1261.29
1593.93
2244.07
1442.81
1367.50
1806.37
1747.32
1698.17
3001.22
1648.14
748.25
670.17
788.57
795.36
786.94
817.89
1415.04
1587.41
2122.97
3230.95
2121.79
2825.86
2910.61
1965.96
1459.42
1524.12
729.91
479.71
510.35
864.54
3324.55
2255.74
1669.04
1591.41
1529.18
1437.62
2571.94
3919.03
3152.97
1770.49
1502.28
2661.52
1403.55
1098.77
1788.17
2141.90
1806.23
1369.72
578.23
819.74
1297.99
1352.95
1667.07
1411.88
1826.23
1803.91
1513.60
1513.33
1435.13
1506.34
1094.92
1604.67
1030.86
761.00
531.34
461.25
1216.92
1381.43
1343.11
1311.14
1289.27
1350.42
1534.25
1388.23
1327.59
1442.43
770.25
675.50
654.85
886.86
1133.34
928.55
1031.43
1946.86
2429.43
2607.89
2104.65
2110.80
2593.39
2986.16
2020.21
1718.41
1648.34
1377.51
486.46
2346.34
2898.68
2526.82
1713.09
740.36
1463.94
1510.54
1168.26
1264.41
1059.44
1881.20
1798.98
1908.86
1902.59
1449.66
595.09
515.69
596.19
1069.79
799.88
776.40
1226.87
1843.92
1988.95
1685.81
1211.61
1737.83
1434.92
1306.00
1170.69
1609.55
1113.13
1076.94
1234.65
955.80
484.40
882.05
2622.41
4162.46
2553.31
1479.87
1563.82
2124.24
1970.47
1665.56
1350.43
1645.62
1339.01
1215.35
1345.10
1730.75
1531.86
1307.72
536.30
1609.80
1694.25
1451.74
1578.11
1429.94
1635.28
1783.04
1353.85
1379.93
1441.31
1509.26
1141.01
1340.86
1303.61
1433.08
851.00
689.49
1237.96
1616.95
1606.23
2314.15
2302.24
1619.50
1329.66
1428.30
1546.44
1369.65
778.81
645.54
1086.43
541.07
1108.38
1209.70
1191.07
2112.86
1956.94
2312.09
1855.68
1444.49
1483.59
1588.21
1384.63
1552.44
1409.92
781.05
699.59
685.28
1241.50
1799.67
1487.08
1542.59
1539.28
1723.57
1829.66
1346.18
1450.73
1423.31
1250.44
1731.41
1346.66
2003.03
2631.21
2459.63
1740.71
656.76
595.83
695.30
1353.29
1497.08
1727.38
1637.19
1258.27
1540.58
1393.12
1544.90
1191.46
1570.03
1226.94
1537.49
1109.98
1821.44
751.34
1380.10
858.91
1411.18
1893.55
1948.53
1411.45
1272.28
1372.11
1479.62
1902.95
1461.43
1327.59
807.71
562.97
472.06
908.26
1414.48
1599.95
837.11
1671.10
2861.16
2645.26
2248.36
2335.64
1959.52
1630.07
1572.90
1366.75
1734.10
1801.59
1702.95
2598.54
702.72
1018.22
1556.49
1444.96
1213.11
1147.72
1408.58
1097.03
1524.40
1296.26
3069.70
1580.25
1915.92
1902.61
1423.74
1522.92
1511.59
1338.01
864.74
964.76
1367.56
3122.27
1823.47
1476.14
1398.36
1410.91
1408.15
2340.62
2604.19
1497.43
846.71
620.52
3698.30
2063.71
2164.23
1914.66
1018.73
1513.69
1394.52
1273.50
1394.99
1367.49
1454.64
3977.07
1587.59
1450.21
1441.84
793.68
856.31
860.47
897.13
748.63
898.95
1374.62
2420.29
2026.60
2404.06
1753.22
1880.37
2128.94
3203.76
4136.24
4115.65
2148.37
892.11
1353.19
807.32
678.83
1042.21
653.70
1414.46
1412.84
1629.59
2570.77
3087.63
2079.26
1555.15
1386.66
1556.23
1720.62
1422.75
684.96
743.18
1440.30
1366.75
1253.84
584.41
1734.14
3034.17
3283.40
2572.56
1870.09
1498.79
1586.30
1350.84
1613.27
1948.93
879.39
789.54
812.11
686.49
533.07
686.16
1303.16
1383.91
1525.62
1244.27
1355.20
1405.90
1562.16
1512.99
1404.05
1796.40
1162.67
779.09
643.18
706.56
900.15
622.32
697.77
1191.45
1384.59
1550.63
1413.86
1326.41
1644.30
1742.70
1529.62
1878.42
2377.64
2362.44
1495.21
887.76
1669.40
1783.81
881.86
862.21
1416.06
1209.64
1307.94
1557.65
2190.00
1924.66
1554.37
1538.73
1351.42
1453.58
776.05
896.47
1191.00
1937.72
2173.49
1670.76
1697.31
2060.02
1710.12
1803.32
1192.05
1481.36
1334.56
1374.41
1321.04
1544.67
1363.72
1473.97
1547.08
1397.74
968.29
735.91
559.17
1670.31
1422.04
1663.50
1582.90
1719.61
1305.98
1500.38
1381.80
1705.56
1657.95
1172.85
1242.18
1409.65
1527.94
1705.94
1380.82
1227.69
1651.94
1504.29
1457.70
1874.42
1404.46
1633.87
1437.15
1463.97
1380.39
1575.28
707.81
1641.13
1984.63
1585.77
1164.32
830.56
1298.16
1500.40
1544.70
1823.82
1979.66
1719.71
1489.46
1462.60
1701.41
2259.29
1535.26
893.86
380.57
394.43
669.45
777.80
1379.53
3419.04
4125.17
3314.12
1779.63
1429.84
2565.66
2162.91
1451.40
1834.54
1847.64
1573.69
1501.42
1271.42
819.72
874.14
770.92
1369.20
2542.04
2079.75
1894.55
1434.33
1245.89
2804.58
1344.87
1367.43
1762.81
1767.96
1165.64
802.49
729.81
827.17
1651.24
2211.56
2674.35
2367.03
1587.75
1743.75
1153.88
1689.94
1329.27
1471.24
1357.00
1597.05
1981.66
4146.43
4099.90
4154.81
3526.65
1164.91
1471.04
3275.20
4169.53
4261.90
4116.03
4074.49
4159.78
2566.37
1633.55
1663.04
1438.66
1296.73
950.94
857.72
1007.56
1534.19
2226.36
2846.52
2162.99
2573.98
2128.17
1444.12
1509.51
1571.42
1271.65
1608.63
1854.38
1612.27
2632.26
1471.58
1546.50
1364.10
747.02
686.97
1129.52
1288.26
1158.75
1446.46
1148.67
4132.21
1461.92
1544.94
1848.11
1531.27
1338.61
1347.67
1347.35
538.16
1140.76
1695.28
3357.80
2191.88
2256.96
2162.38
2013.88
2370.00
2221.39
1856.93
1186.09
1370.97
1305.75
1371.29
1167.61
987.02
583.86
651.70
940.97
826.76
1028.94
1224.30
1483.84
1881.98
2617.16
1258.47
1420.36
1528.81
1730.30
1661.62
628.38
561.34
661.49
838.00
1316.79
837.64
676.66
2341.03
1926.20
1520.62
1089.87
1435.49
1380.31
1687.80
1517.68
1782.95
1429.61
1181.52
1201.96
807.47
595.28
570.29
1092.21
2100.91
1992.44
1616.23
1354.90
1633.83
1916.07
1887.34
1659.21
1567.88
1375.65
691.38
805.87
1403.86
1402.49
1457.05
1191.47
1898.46
2607.44
2058.07
2283.90
1639.60
1122.94
1285.04
1497.71
2417.47
2371.78
1632.37
687.07
623.41
1017.92
1072.31
987.55
852.94
1210.41
1526.07
1617.18
1333.27
1627.15
2218.44
2774.05
1668.76
1440.83
1855.88
3919.29
4169.94
3351.35
1248.00
774.03
730.58
876.58
1294.76
1658.34
1766.74
1457.44
1447.28
1654.27
1387.18
1425.94
1332.16
1409.22
1112.87
856.95
582.10
1011.15
1197.40
678.55
573.37
1625.28
1541.59
1689.18
1997.54
1937.61
1512.90
1598.92
1313.57
1943.40
1742.37
621.18
951.84
797.82
1775.57
2675.86
3007.39
2724.30
3146.21
3689.58
3723.83
2031.88
1396.26
1271.39
2560.92
2594.06
2816.69
4126.48
3628.38
2923.68
1196.46
623.87
647.47
795.93
1303.46
1400.45
1662.07
1439.35
1878.71
2452.63
2788.41
2870.45
2363.64
2375.27
1202.68
673.99
1185.31
745.88
1020.29
1947.40
2072.48
2371.17
1569.67
1453.66
1429.43
1502.13
1877.55
2093.02
2836.55
3149.24
2073.13
703.91
1328.18
2513.43
3097.51
2812.34
2777.21
3388.77
3369.51
3059.41
2456.78
1849.90
1374.10
2003.44
1712.27
1758.47
2172.30
1506.22
1145.38
436.85
994.55
809.32
2064.76
528.48
1346.87
2226.77
2589.24
2240.33
1513.79
1863.36
1915.75
2426.40
3454.45
3760.62
2256.25
571.70
651.78
814.29
772.46
2193.32
2628.65
2466.05
1441.00
1487.60
2532.74
1252.49
1460.97
1564.48
1909.64
2043.91
2061.94
1787.70
1614.75
1929.64
2343.57
2559.41
1478.57
780.91
1397.43
1422.11
1408.61
1418.44
1696.32
1660.42
1464.80
1571.13
2700.32
961.34
1393.87
1483.01
1227.90
756.93
755.05
696.18
1888.99
2393.11
1858.11
3505.62
1435.45
1264.77
1401.75
1464.32
1503.04
1552.40
717.23
349.37
636.32
1021.35
3157.63
757.25
530.66
1719.10
1978.71
2442.64
1541.78
1385.28
1533.04
1493.25
1871.45
3181.29
1868.57
1393.49
1139.29
689.57
755.32
1842.81
1298.19
996.03
1424.31
1267.83
4155.81
1378.60
1590.54
1332.65
1338.38
1219.98
1457.94
1699.38
1442.66
997.24
634.04
1111.36
991.61
2319.90
3435.50
2591.61
1529.75
1130.30
1309.76
1377.60
1423.35
1284.25
1566.66
1551.77
1442.01
1630.26
1404.13
450.95
1034.68
1434.48
1865.09
2451.99
2472.14
2166.67
1905.42
1410.27
1288.91
1388.24
1485.55
1632.89
1428.99
1095.64
1177.45
1221.65
1427.44
1210.02
1830.92
2608.46
2882.90
1899.73
1820.79
1263.16
1517.98
1419.36
1605.46
1345.39
1611.27
940.92
867.90
953.81
760.06
469.84
572.86
864.51
2024.54
1828.31
2353.98
2185.22
1438.48
1276.62
1531.67
1745.33
1749.64
1413.58
830.33
843.97
1135.84
1202.72
994.82
476.19
497.60
1435.87
1421.30
1420.86
1514.26
2189.20
2613.62
2440.54
2039.27
1393.05
1397.31
631.70
893.08
817.75
1036.90
1030.00
1652.33
1844.23
1423.71
1418.50
1527.64
1381.17
1454.10
2255.60
2079.66
1775.71
1436.81
1058.48
650.13
614.37
536.13
872.36
1273.91
859.09
1792.04
2171.39
2401.45
1629.23
1591.35
1732.65
1369.23
1200.17
1593.87
1217.08
662.46
1408.80
1449.10
850.66
816.94
1177.03
726.40
1375.52
1229.50
1577.99
1760.73
1782.32
1335.43
1337.28
1419.19
1231.66
1567.15
628.24
614.18
602.13
919.80
1089.43
1011.16
692.42
1685.44
2024.64
2861.05
2573.98
2597.15
1781.08
1475.81
1805.23
1773.38
1500.28
600.36
678.35
425.23
522.83
709.52
782.62
1893.22
1546.94
1676.84
1398.77
1857.68
1950.82
1569.15
1905.35
2040.26
1674.28
1938.96
1822.78
1576.58
1488.09
924.56
851.13
1049.14
1374.82
1483.65
1275.64
1460.72
1606.52
1599.82
1372.25
2713.53
1563.58
1389.45
623.82
595.05
621.59
916.50
999.41
798.79
963.65
1577.25
1847.16
1346.37
1306.28
2421.36
3000.89
2370.79
2001.18
1496.30
1021.42
730.91
715.35
2306.63
1328.76
989.20
885.11
1965.20
2205.85
2166.89
2878.92
3255.22
3143.40
2885.56
2769.65
2348.82
2189.41
1588.59
1008.15
699.65
681.00
1105.98
1905.43
1155.08
1522.53
3488.91
2321.75
1587.56
1179.41
1321.96
1200.55
1502.81
1173.80
1446.32
685.19
661.27
2781.08
787.21
510.35
1231.29
2302.32
1769.98
1459.95
1456.34
1501.71
2112.27
2235.99
3307.79
2517.14
2663.24
2286.60
1232.13
1282.47
1568.23
1010.02
587.00
647.32
1321.57
4045.91
1516.28
1380.08
1357.93
1388.10
1370.39
1492.24
1440.50
1284.91
838.28
574.71
2835.87
797.07
1090.26
879.00
689.11
1334.08
2179.69
4180.99
4129.86
3046.61
2246.55
2459.21
1483.70
1530.53
1955.48
2129.50
1548.27
622.20
930.35
882.41
926.58
680.61
1456.72
1033.26
1398.15
1203.32
1333.00
1644.84
1810.26
1368.20
1508.68
1799.14
921.90
814.84
874.71
810.81
1321.30
1001.59
1190.60
1436.55
1417.06
1942.82
1579.21
1397.74
1915.27
1901.90
1748.15
2107.18
2149.87
2025.06
2596.70
2080.23
1653.22
909.03
682.12
1468.72
1608.33
1291.89
1312.15
1362.68
1353.65
1286.06
1399.59
1284.19
1401.40
766.23
745.45
984.54
1316.25
977.53
739.48
839.79
1636.95
1301.12
1439.33
948.37
1601.47
1718.23
1691.23
1410.96
1499.79
1113.83
733.92
599.29
625.95
819.46
774.98
785.83
1413.37
1768.93
1700.90
1358.41
1498.29
1446.65
1951.50
2117.50
2193.76
1650.55
1046.80
794.70
1300.46
1745.52
1839.00
1145.21
820.57
1149.55
1673.03
1443.00
1421.08
1097.14
1539.64
1995.56
2424.77
2325.54
2196.75
992.52
633.69
946.10
1142.55
965.83
599.36
1077.09
1523.64
1116.74
1441.04
1522.94
1881.98
1394.03
1636.39
1397.06
1434.56
1559.18
1513.12
1103.13
956.76
1165.76
987.34
761.88
1124.80
1909.27
2013.32
1949.59
1545.27
1783.60
1874.10
1356.62
1385.25
1500.03
758.35
651.75
756.69
743.60
742.40
629.82
909.47
1634.88
1646.72
1949.87
1715.79
1445.94
1309.63
1290.73
1572.88
1425.51
2583.14
2656.28
2764.51
1730.39
1485.12
1135.66
597.62
623.82
1894.92
2150.85
2282.53
1327.50
1467.38
1701.01
1539.04
1463.61
1534.56
1236.85
591.40
536.20
1336.11
2397.94
2108.69
1101.05
2744.98
1551.33
1671.86
1325.14
1216.49
1262.17
1492.72
1531.99
1841.44
1904.11
1674.01
1708.47
603.20
1108.62
1500.72
1496.74
1073.42
1239.05
1398.49
1742.40
1437.85
1257.67
2481.33
1539.96
1399.62
1395.07
1459.55
1230.13
659.65
703.46
617.25
549.25
812.12
1774.79
1574.51
1285.13
1512.29
1392.76
1542.07
1352.10
1400.05
1478.48
1440.65
1433.11
2361.22
1180.76
1038.54
836.09
1771.05
2819.69
3203.60
2962.76
2300.21
1730.18
1074.02
3412.39
1366.99
1220.65
1461.97
1256.96
1068.32
1048.63
719.15
565.12
657.11
458.22
3313.24
1451.53
1644.43
1979.93
1677.57
1613.98
1430.76
1500.04
1814.60
1885.97
1875.64
2786.12
1613.73
1231.91
642.26
607.06
709.48
1302.48
2151.61
1612.22
1755.80
1194.11
3252.66
1503.42
1591.85
1492.72
1692.96
1770.20
1507.85
714.86
670.22
783.24
991.26
1220.54
1695.82
1649.93
1650.95
1585.99
1434.91
1545.30
2072.27
2303.01
2275.65
1680.93
757.36
963.27
922.66
864.19
930.41
568.99
914.02
1229.61
1460.46
1927.86
1490.37
1152.02
1652.17
1830.53
2144.30
2080.33
1513.40
576.14
776.21
428.42
910.41
812.62
709.54
858.39
1325.86
1342.29
1463.64
1193.53
1948.09
3177.32
3447.74
2419.05
1586.68
1292.28
2313.00
2473.53
2143.79
1760.70
1823.10
1733.13
1399.55
1499.14
1995.01
1954.17
1507.08
2160.34
2114.43
1840.77
1562.27
1636.09
887.80
559.37
658.49
752.23
1188.53
1004.54
1067.96
1673.03
1662.26
1858.54
1819.37
1666.62
1496.56
1483.68
1673.58
1609.27
1797.75
1683.76
1509.67
1190.22
957.39
1018.11
1405.54
1189.27
1957.90
1415.75
1618.46
1346.90
1637.01
2046.46
2218.93
1590.74
1487.34
1778.08
1039.02
665.22
797.08
703.40
603.31
647.77
1394.71
1468.06
1568.32
1525.76
1382.21
2313.24
2514.40
2024.57
1482.93
1541.49
1272.33
560.10
969.87
2225.59
2904.22
3006.93
1931.68
1514.06
1714.66
1693.49
1753.76
1378.25
1818.81
1927.17
2218.87
2084.51
1723.34
678.48
1847.54
2550.96
1977.96
1191.49
1091.54
1334.43
1728.32
1391.07
1628.70
1653.12
1996.30
1834.61
1617.59
1793.62
1559.93
1712.17
932.95
988.17
767.04
637.20
925.89
1289.65
2068.43
3575.12
4147.79
3822.45
3281.91
3061.55
3035.81
2197.96
1635.69
1735.74
2153.07
2086.54
1726.38
1547.27
805.71
1263.17
1042.78
1579.02
1514.03
1660.05
1560.40
1407.52
1745.30
2190.08
1654.36
1322.69
2696.63
1153.84
1377.85
651.95
690.45
603.33
800.44
1077.87
1905.27
1807.51
1458.32
1939.50
1608.50
1674.65
1514.23
1953.20
2234.63
2134.20
1747.35
1159.30
895.98
674.23
2363.34
598.64
1431.81
1507.35
1497.74
1793.21
1599.21
1276.72
1378.48
1486.64
1656.63
2541.03
899.25
599.35
895.63
1269.21
1029.15
675.99
957.22
1919.76
2502.28
2685.35
2853.49
1934.39
2395.00
2771.70
2874.39
2729.27
1618.92
1467.55
2276.54
2150.37
1119.55
3408.89
1716.67
2116.09
2168.79
1863.78
1909.43
1301.50
1207.67
1558.21
1749.56
1800.01
3449.94
1861.53
917.25
1008.15
1051.28
712.45
579.17
505.47
1179.93
1531.96
1332.83
4181.49
1286.18
1599.60
1818.94
1595.83
1931.24
1793.68
1838.11
1714.91
1857.88
1558.10
2920.28
617.89
788.83
1185.77
1507.62
1144.64
1530.26
1550.27
1574.47
1228.76
1716.60
1823.35
1694.29
752.40
797.31
782.13
1260.58
1484.05
1432.39
1365.98
2635.38
2727.49
2873.45
1992.87
1471.25
1426.37
1277.30
1242.02
1522.57
1735.05
1958.88
1275.12
755.86
1373.16
1715.67
1185.46
1552.20
1919.98
1984.92
1685.23
1434.40
1375.81
1359.53
1736.05
1672.14
1843.54
1139.69
628.50
620.83
672.99
1466.80
936.84
723.85
1450.90
1422.75
1567.52
1693.21
2063.35
2952.89
2237.02
1585.02
1627.50
1466.28
683.42
839.32
584.92
1025.91
1355.87
1268.87
1098.07
1599.58
1537.98
1518.44
1344.93
1551.45
1545.87
1722.66
1517.50
1762.45
1467.47
983.28
980.40
1363.57
880.88
1201.84
1173.30
1280.98
1671.20
1450.54
1591.76
1421.01
1532.10
1406.33
1659.80
1685.57
1613.18
1091.40
748.39
777.33
681.09
749.17
628.66
780.48
1379.77
1213.94
1230.60
1338.75
1394.18
1352.41
1246.00
1555.64
1769.75
1836.45
1031.24
574.13
646.48
572.22
581.11
1196.79
2251.81
4075.69
4133.16
3227.98
1369.27
1271.14
1289.03
1492.16
1482.35
1602.22
1613.62
805.02
628.78
1484.12
2210.40
1816.74
1694.38
1197.55
1477.64
1926.44
1449.29
1304.39
2751.79
2644.79
2433.06
2145.23
1433.37
918.03
1070.65
925.21
479.20
1024.80
1242.45
1806.30
1996.98
2233.70
2326.85
1434.83
1262.44
1453.13
1386.43
1508.04
1655.33
1702.07
677.49
665.81
566.90
913.14
674.14
910.22
1138.09
1533.84
1597.87
1564.42
1331.58
1472.42
1401.29
1395.01
1883.17
1612.08
1766.75
2097.96
2114.29
2054.52
1606.60
1488.44
1380.29
1140.01
1254.42
3216.08
1541.09
1471.44
1671.27
1473.87
2407.78
3375.02
3372.37
1517.03
952.07
1820.79
2267.12
695.09
722.82
673.39
1766.81
1795.64
1271.63
1515.46
1223.74
1386.78
1606.00
3042.36
1268.35
2098.66
2387.88
2391.24
1993.88
1709.73
849.15
1211.00
2064.43
2339.36
3295.73
1331.07
1264.04
1764.88
1891.46
1482.03
1544.27
1373.64
1490.24
978.69
671.59
2278.40
884.27
868.40
812.89
1329.47
2001.56
1751.17
1569.98
1297.60
1455.11
1288.71
3283.90
1398.50
1499.19
1221.14
1191.12
1023.73
963.95
1106.16
981.97
879.83
1779.91
3004.18
2041.24
1744.74
2021.87
2463.93
2394.59
1849.06
1331.26
1332.35
1423.14
1651.28
4091.83
867.39
911.82
840.54
736.38
1173.62
1203.96
1373.25
1235.25
1434.54
1738.12
3554.00
1493.95
1574.49
1954.89
1601.40
1230.38
971.43
1016.54
947.95
815.64
886.59
1592.16
2817.87
3330.22
2509.94
2028.01
1737.51
1688.26
2031.19
2303.85
2277.76
1833.30
1753.05
1060.99
696.01
533.52
729.19
2337.76
4008.69
4128.58
4185.37
4176.40
2448.36
1518.35
1775.91
2074.30
1950.77
1634.98
1379.99
901.32
827.40
1015.66
656.70
759.24
1859.35
2181.27
1970.68
1973.52
2338.42
1878.27
1835.67
1497.03
1573.67
1605.72
1519.33
1590.68
1665.74
1610.81
910.77
783.09
1122.15
1470.16
1432.40
1213.39
1270.29
1521.17
1377.91
1542.57
1647.92
1509.28
1596.44
1922.44
2537.22
1734.89
1029.42
785.47
810.84
1426.40
1765.72
1621.82
1371.42
1412.58
1437.48
1627.30
1617.56
1976.72
1754.48
668.34
1162.26
945.03
688.17
904.32
1328.02
1189.84
1572.70
1344.27
1308.37
1426.97
1096.80
1329.51
2197.33
2382.51
2551.80
1955.83
578.53
500.72
734.71
919.20
1024.59
1133.58
2234.53
2909.54
2450.00
2506.50
1717.06
1415.54
1458.60
1363.66
1560.29
1391.97
1360.92
572.39
870.56
1260.31
659.05
477.11
808.46
1288.77
1427.69
1660.27
1690.39
1411.87
1269.22
1529.15
1670.99
1710.07
1635.68
846.71
867.13
753.57
686.95
417.49
998.31
927.61
2218.01
2006.04
1635.12
1445.44
1967.82
2516.10
1893.60
1528.85
1790.46
2327.12
2403.02
1496.12
660.84
1148.33
1777.39
1036.38
997.64
1371.19
1207.04
1411.47
1527.42
1442.08
1729.12
1437.94
1303.17
1523.63
1524.92
1250.45
1182.56
922.92
823.84
833.30
958.62
2445.43
2443.87
2346.45
1893.17
1349.75
1496.54
1497.67
1293.36
1627.66
1635.13
713.45
2432.80
1066.06
1211.76
1059.11
806.93
676.31
1244.55
1542.01
1437.45
1269.02
1513.91
1835.25
1532.40
1811.14
1971.16
2232.28
2185.97
1642.79
1020.87
673.08
632.57
638.97
2304.59
1887.88
1869.50
1254.45
1226.88
1214.81
1460.47
1414.48
1577.48
1302.12
1171.30
1682.23
1083.22
1328.25
1262.92
711.73
995.14
1218.64
1449.53
1665.38
1480.28
1112.27
2894.30
1728.39
1531.49
1457.39
1432.33
1064.96
1261.82
1201.65
1581.99
1407.39
1527.53
2924.63
2918.21
2679.19
1842.91
1206.70
1721.77
2078.78
1789.21
1389.14
1371.12
1492.27
2932.48
1286.09
1616.91
2102.30
1902.17
741.60
1174.79
2136.44
2472.98
1610.41
1397.21
4067.19
1424.36
1585.09
1921.71
1828.66
1788.90
905.35
