1102.23
984.25
1134.29
972.68
956.63
375.26
495.24
373.66
493.30
441.26
620.14
308.43
1893.67
769.70
1038.68
999.10
785.38
953.77
793.28
854.32
943.93
676.16
573.74
1400.78
850.58
692.20
706.02
789.75
1151.37
1333.86
1280.83
1302.48
963.84
997.74
923.87
1121.97
976.17
876.05
480.06
250.24
477.49
379.87
483.53
501.91
531.84
858.35
1134.33
1099.58
835.12
831.33
1133.93
1167.61
1196.16
1271.86
1345.45
1172.71
1214.58
1720.16
1677.89
1487.52
1222.12
1020.44
1001.83
564.65
1038.75
1674.49
1852.10
1385.11
1105.99
947.43
751.26
570.12
742.96
872.95
550.44
396.20
533.90
428.28
757.82
1114.42
1057.43
837.54
793.88
758.15
1024.27
916.79
1064.73
1013.51
613.56
791.14
1184.56
707.42
557.12
915.34
897.57
1154.08
1100.05
1220.88
933.78
816.77
1077.71
1584.80
883.36
1115.62
1075.16
480.29
505.14
354.46
421.70
540.97
532.08
518.75
1397.31
748.15
765.67
738.90
937.09
970.22
1154.44
894.02
758.35
849.17
630.62
1313.89
638.51
550.00
532.73
590.97
906.79
960.44
1088.74
829.04
1072.53
1124.05
2108.76
897.39
1110.95
883.63
561.97
498.80
448.16
536.16
441.43
307.07
489.96
1054.03
1300.92
677.84
825.65
695.50
948.21
834.45
970.29
1006.71
908.12
531.58
814.48
1022.33
615.40
461.25
613.40
626.32
1324.39
1132.59
1050.13
750.07
1042.73
973.98
1042.17
964.02
854.43
550.21
506.75
611.11
574.60
218.56
555.03
314.14
809.37
1032.17
1891.03
1262.11
1167.76
1021.03
1128.40
1449.58
1764.66
1858.97
1444.69
1363.41
515.04
2552.24
1465.51
1713.48
1902.96
1143.25
1068.56
805.23
825.60
876.93
768.07
889.33
2951.68
1118.57
1117.14
435.10
484.84
550.53
437.10
384.88
641.47
529.30
638.25
757.94
989.15
880.69
965.83
1122.92
929.56
1080.75
1239.53
851.53
632.67
654.05
868.96
582.50
707.30
543.57
1093.22
1218.17
1043.02
935.76
979.47
1067.41
853.96
913.31
863.68
929.39
315.26
309.82
297.04
737.51
524.06
431.42
530.97
934.82
935.29
2155.01
805.89
724.53
977.14
1035.30
1105.35
912.06
1030.33
783.25
755.88
551.41
2071.92
760.51
847.74
595.98
1172.51
1017.99
983.76
681.98
1117.04
968.38
1040.76
2883.22
1087.01
653.54
573.26
488.84
379.92
289.36
399.47
386.44
981.23
989.43
1084.51
1211.89
999.08
851.14
894.57
1221.52
964.47
1106.15
746.63
444.55
847.55
829.55
1063.90
690.57
842.23
945.56
1112.80
926.31
610.96
1138.17
882.01
1046.54
995.01
1104.91
938.57
480.41
277.34
440.05
395.34
634.00
560.68
477.40
1056.98
995.18
957.02
851.66
907.90
1145.85
1464.17
1763.64
1746.43
1667.59
1232.51
889.24
744.58
464.39
1024.67
1377.29
2172.24
1846.92
950.74
820.94
1134.35
1261.78
945.25
1091.07
1348.78
1592.69
1573.02
1449.16
1034.58
981.97
683.01
450.35
313.37
1032.98
785.98
1121.43
910.56
819.94
906.15
1056.32
1262.40
1103.17
986.36
896.10
947.03
861.49
838.24
698.07
758.11
719.05
1161.92
974.44
893.50
743.30
829.80
1005.05
1017.18
1137.96
1354.53
725.61
657.01
722.31
397.57
548.92
639.31
268.87
954.13
811.34
935.82
884.67
859.24
970.09
861.25
908.40
1021.92
743.54
530.82
651.91
700.51
989.88
974.42
694.55
693.95
959.19
1019.73
1145.62
1065.57
941.68
1274.32
1144.63
1097.20
1165.45
987.17
621.08
627.36
474.09
264.18
678.80
777.95
478.51
941.38
898.60
1368.96
1067.30
972.18
1103.80
1064.37
1081.76
1265.38
938.24
818.12
628.50
620.48
825.34
612.15
833.84
1124.61
995.81
1000.47
791.87
1006.76
914.30
941.42
1019.67
1348.53
1036.48
373.76
410.33
376.02
387.16
452.85
701.39
323.47
1103.11
1041.44
1653.26
840.14
967.09
1072.98
1084.79
1251.29
1036.21
965.97
595.57
657.33
507.82
344.97
633.90
604.21
655.86
1078.85
1118.07
989.38
981.01
1281.04
1220.19
1308.65
835.36
1366.65
407.06
522.07
454.11
474.61
513.30
369.55
710.20
902.38
957.51
1126.98
711.97
910.49
854.55
1181.55
1172.40
1200.85
1237.69
885.53
965.86
859.14
818.00
1454.02
1731.81
1243.74
1081.32
854.34
723.58
721.56
890.45
703.79
797.64
1119.02
939.80
994.29
368.36
362.58
702.22
542.15
494.40
468.26
835.77
969.96
1097.99
934.31
921.46
956.36
1182.66
839.51
846.35
1120.61
619.54
419.87
384.19
431.80
727.43
1081.14
752.06
1201.65
1000.77
956.06
693.04
827.50
1282.87
1149.49
1108.21
1052.32
1426.67
335.42
538.39
747.31
819.09
993.44
1064.12
796.77
1120.30
1167.49
1210.18
955.91
901.41
890.20
968.30
868.58
986.47
1020.23
446.83
456.66
412.79
555.72
953.50
274.85
598.29
1089.08
1321.31
1750.59
1488.71
1221.42
891.65
874.35
1023.51
2638.77
1485.48
1413.53
1234.81
535.75
524.03
616.35
741.70
670.97
998.64
770.78
911.63
961.94
1060.95
1076.82
1191.18
1168.03
810.16
1004.70
757.49
520.92
630.57
476.51
462.74
590.50
1388.59
1112.45
1069.40
946.31
1096.27
1018.52
980.31
844.90
933.24
1074.13
333.09
510.23
187.08
403.69
324.41
426.00
437.90
931.94
1029.41
717.84
656.12
841.35
1148.00
987.85
884.50
945.30
711.41
610.01
575.25
331.29
533.05
734.71
852.11
960.77
1177.88
1062.25
806.60
757.17
1043.72
1115.51
1237.82
1630.17
1438.27
1369.81
766.23
478.97
538.64
577.81
549.60
237.26
995.92
996.24
1016.15
810.59
2793.60
917.37
1036.44
842.27
1037.83
992.65
481.21
362.96
519.87
592.26
451.66
864.64
664.35
1093.06
860.47
883.83
899.71
997.74
952.92
1015.41
875.01
1106.00
558.34
975.00
481.89
349.73
482.66
536.42
517.60
804.31
808.27
818.38
721.40
862.69
869.26
907.36
943.53
1104.92
1058.51
781.50
682.96
789.83
574.82
753.88
683.13
712.07
1223.24
1279.83
1062.82
948.75
949.12
1168.44
927.77
1135.03
881.56
958.07
390.17
448.50
281.37
379.53
671.75
809.00
747.42
1172.67
890.84
1026.06
835.44
1136.75
1151.32
1062.07
939.71
922.76
877.80
1463.57
1670.82
2086.83
2086.97
1617.08
970.73
1140.57
859.52
1117.73
1622.73
1337.89
1090.26
1082.01
1129.02
1249.65
1254.36
692.08
853.58
689.03
298.98
508.30
464.69
622.28
984.01
1213.78
1127.63
945.60
1016.91
1324.57
929.19
1028.17
1055.14
1093.91
658.17
880.75
959.80
933.43
924.13
899.90
1087.74
1417.83
1170.60
928.18
817.48
1105.39
1049.18
821.61
984.73
927.80
602.31
1059.01
398.40
620.43
468.11
380.76
456.83
798.58
809.92
920.71
1076.60
1036.32
1296.77
1042.28
1059.64
1193.58
889.50
513.78
521.06
547.29
686.08
578.34
606.13
1250.31
951.23
874.14
962.46
647.98
797.14
810.79
945.80
1058.16
821.85
774.82
1411.63
688.82
736.44
764.75
643.32
825.19
786.42
908.51
916.56
955.55
945.49
2191.22
917.60
1116.78
1154.83
1025.19
447.39
723.03
977.44
1531.47
1804.66
1452.48
2180.13
1004.05
814.44
819.03
1191.56
883.98
937.42
820.44
1064.82
1296.49
1041.25
2198.93
902.20
491.80
377.17
738.13
391.02
346.85
1054.01
1075.81
1044.41
914.85
2757.51
1129.31
928.67
1013.80
1258.43
995.08
726.02
667.78
647.16
693.46
489.23
862.72
780.75
932.02
1039.35
1457.29
1314.75
1487.17
1301.51
1050.38
950.42
1097.87
579.53
464.19
786.62
1100.87
1827.27
2563.33
2353.36
1775.13
983.81
1136.26
1682.65
2320.17
2193.58
1659.91
1155.72
1086.04
824.61
325.64
495.99
423.20
216.66
501.79
334.80
639.45
1145.05
1249.21
1210.64
930.43
1055.22
1306.93
1501.44
1998.04
1938.34
1202.54
815.19
341.88
784.49
853.84
825.03
832.84
761.74
1121.42
1179.69
1000.82
942.18
1149.70
1105.23
1422.44
1651.60
1720.72
1768.07
1131.00
639.03
430.86
724.87
634.59
805.54
1038.02
847.32
1031.25
1073.35
1702.98
1576.30
1415.96
1005.05
922.03
941.64
830.65
574.04
970.33
1357.22
411.98
1086.17
1247.82
2268.22
2139.20
1677.16
776.36
1178.50
775.72
1073.96
1209.69
1190.49
931.55
508.04
512.63
403.28
477.76
698.15
1001.18
810.75
1157.84
1289.97
1026.14
906.84
1123.13
894.75
1045.01
992.45
1101.34
870.27
372.31
540.11
158.09
546.36
702.41
592.74
983.95
934.11
894.50
818.56
1375.27
1129.05
1328.45
1116.19
1445.31
1024.58
724.38
618.84
664.89
909.91
1352.07
2068.38
1966.16
2318.90
2035.16
1503.40
886.16
914.62
1201.07
1019.58
1133.30
851.47
2729.33
1289.64
683.15
397.58
493.53
578.55
354.08
624.53
815.11
686.91
803.89
2202.09
957.24
922.98
950.01
969.50
1119.88
692.10
490.46
678.53
378.44
476.72
2401.57
644.33
1172.66
1269.38
1173.77
857.97
926.94
949.34
970.02
945.13
1609.34
1651.60
1028.28
907.66
947.08
1293.79
500.88
569.86
465.89
1310.09
1480.84
985.09
918.40
979.17
981.78
1136.07
1081.03
1034.77
986.86
936.21
998.26
1205.35
1001.14
379.81
534.14
436.22
1033.33
769.86
1250.85
895.17
1231.50
1875.01
2807.86
2780.04
3036.17
3026.50
2327.66
497.49
2860.34
2677.35
2970.48
2933.28
2841.42
2881.72
1646.89
1035.53
737.51
728.60
999.53
1059.29
1174.45
1188.44
785.00
704.36
535.28
449.97
425.44
645.79
820.68
1379.43
1344.61
989.75
866.42
1022.34
1256.88
889.39
1023.73
952.96
896.16
604.22
636.14
785.48
717.27
464.95
455.02
558.86
807.85
881.35
1026.76
899.71
1078.76
1052.10
1268.16
937.74
865.02
662.60
605.76
714.76
914.43
784.19
825.24
709.84
1124.06
804.90
1229.89
930.57
765.02
913.42
973.23
965.61
906.44
1010.19
467.33
453.47
523.49
606.59
582.93
558.30
577.03
796.59
1018.92
1011.93
2240.67
758.51
860.91
1175.01
848.37
918.87
885.27
325.94
383.93
428.38
530.92
2192.33
867.40
691.42
1099.88
1438.88
1470.28
1367.71
1513.06
1580.07
2434.51
2831.16
2784.29
2733.46
888.56
1990.51
2787.07
2888.75
2700.78
2031.22
1322.11
935.79
1057.11
796.67
991.63
1185.43
1446.11
1425.55
1170.02
1105.29
688.12
720.12
456.59
392.67
394.14
750.01
488.17
983.01
824.27
888.68
886.56
1192.57
1287.04
1168.11
886.22
711.78
903.52
408.44
445.40
483.76
548.24
534.66
524.34
669.70
1070.24
1051.83
1051.55
2313.15
2946.79
2864.62
2271.74
1258.95
1476.62
2440.60
2541.92
1342.76
939.17
1650.05
1772.77
691.58
769.41
925.99
908.81
850.94
766.19
1947.12
2951.18
2808.50
3007.27
2929.35
1749.80
1042.73
2695.71
2860.34
2896.71
2965.68
2910.13
2699.71
1888.07
962.59
1797.43
1080.69
1147.06
1514.48
1321.68
1093.94
846.96
604.76
691.89
372.97
324.12
1791.56
484.94
579.03
1179.29
1376.30
1229.43
1015.76
1072.25
1116.47
1091.86
994.30
2744.78
610.70
555.76
381.59
365.22
300.55
801.92
738.47
1108.93
616.33
838.44
2598.77
947.40
1332.02
968.24
1019.20
1040.28
1152.66
424.04
829.29
1708.17
2951.37
2848.53
2760.65
2719.03
1387.26
869.59
1058.75
1772.97
2020.53
2076.77
2019.71
1440.29
1462.68
648.24
715.29
1136.70
1106.68
664.16
570.19
659.85
648.82
1104.04
1185.05
820.95
834.44
794.54
843.18
1299.69
1047.58
953.06
787.60
867.88
1317.62
1908.19
2106.51
2622.32
1398.93
938.58
831.08
1014.91
1343.94
849.81
1080.43
1040.93
1041.82
1306.56
1104.34
699.36
683.63
910.59
1089.19
688.79
288.23
430.02
923.92
767.56
907.39
877.81
1035.99
1096.18
1047.39
1263.95
1098.22
937.47
969.76
906.34
829.17
514.56
538.67
623.92
965.04
1401.98
1575.09
1849.61
1696.83
1922.75
1271.02
921.92
908.69
1092.29
658.76
546.75
378.57
509.17
864.14
1919.97
2791.15
2890.27
2855.74
1149.45
1247.10
2274.09
2823.43
2899.18
2891.03
2737.84
1555.98
974.76
291.67
350.75
974.97
1365.35
1454.04
1112.07
1542.17
1362.92
1497.91
1145.67
994.04
1123.13
1064.85
1070.04
1064.36
842.54
602.98
850.83
645.52
554.05
580.45
741.95
728.49
1008.86
772.14
1163.95
1488.33
1744.72
1895.42
1519.10
1340.08
1516.24
1034.97
766.33
507.79
360.21
814.92
420.06
412.31
919.22
750.22
970.58
978.83
1115.64
1246.06
1188.03
899.64
1256.94
900.97
577.57
358.16
327.03
531.84
563.83
395.09
341.88
880.06
1093.37
1137.55
892.39
885.84
1182.01
886.25
952.38
1080.46
1373.95
1455.99
971.76
635.93
686.81
733.22
419.14
709.49
965.65
983.89
1030.65
861.82
1616.12
1830.64
1435.41
1105.74
1003.17
410.16
459.42
338.21
878.19
1549.25
2097.88
1629.40
1206.83
755.52
1323.30
846.88
1040.11
1463.87
1593.37
2023.96
1908.42
1644.84
1477.63
1037.94
414.72
1173.75
794.31
937.36
990.86
1465.63
1252.82
951.78
643.99
826.61
1008.10
1403.49
1675.92
994.01
943.91
494.54
331.82
527.55
620.87
448.13
522.58
1160.35
924.77
1474.84
967.12
915.08
1018.63
878.73
1078.67
1197.46
1038.51
737.92
726.90
845.85
1687.67
790.17
745.50
683.20
1025.47
686.59
864.65
639.48
933.65
860.84
893.57
2058.91
1535.44
1626.69
1208.21
1571.34
1090.72
620.38
465.64
952.87
1685.51
2775.36
2743.43
3063.92
1334.94
826.71
1733.11
2867.99
2902.46
2906.28
2946.51
1333.01
1117.36
3046.57
2970.05
2347.39
1359.66
700.67
1082.59
1125.51
1070.29
507.50
851.27
1047.68
2719.57
1153.86
1713.16
2004.96
2769.46
2942.29
2910.36
2689.19
1359.76
368.53
1613.06
2868.67
2974.19
1598.51
889.64
1532.97
2342.97
1638.61
1056.53
2209.73
2783.70
2796.97
3040.01
2796.05
1380.59
340.55
617.10
1536.96
1201.52
1570.22
1196.39
1199.72
1409.10
1116.14
1319.16
1038.52
517.79
540.44
438.87
671.97
489.08
465.18
562.33
659.91
1027.61
1019.15
1008.33
890.53
1000.75
1172.37
1144.75
1107.10
1097.86
427.87
485.80
539.63
681.33
673.81
873.95
1005.71
1805.05
1793.57
1426.42
795.87
900.73
838.67
964.31
955.89
821.48
1018.45
543.50
503.02
714.00
585.47
601.50
512.10
397.70
1150.39
1370.99
1282.25
974.77
894.16
999.01
1022.91
889.00
1097.78
773.55
622.40
1260.14
1880.42
2205.93
2221.21
1002.08
886.23
1655.92
1868.22
1597.41
1033.92
898.89
1002.45
1143.84
1080.80
1123.94
657.32
991.27
1666.53
2058.13
1827.92
1248.85
619.40
1572.39
2800.03
2950.37
2333.17
1559.78
726.58
927.76
1292.99
1272.13
990.59
426.32
560.71
564.24
960.58
1630.69
2859.30
2904.23
2620.04
2793.22
1225.05
1062.21
2124.38
2433.53
2696.23
2354.81
1310.64
716.07
695.32
1259.18
1806.39
1315.42
795.66
453.21
1472.61
1754.47
792.10
960.71
805.20
1015.76
920.53
1173.77
1062.78
1071.83
675.41
1010.86
1094.20
668.03
810.73
1177.89
1786.49
2389.69
2046.60
1948.17
1142.75
1033.25
1660.80
2430.60
2028.41
1824.61
1576.97
639.06
503.00
652.52
642.83
581.66
540.37
515.44
1439.86
952.55
1037.37
1208.10
1646.64
2000.62
1805.82
1649.02
1326.42
1079.17
692.06
820.72
878.43
1009.13
845.21
501.23
1092.80
1762.98
1944.07
1739.21
940.90
939.98
1715.41
1176.83
994.15
1163.19
596.80
597.92
811.86
646.60
430.72
274.43
459.07
1367.66
931.02
1090.25
918.61
906.66
903.84
1440.31
2025.30
2783.98
2639.86
1298.06
1000.07
573.93
961.03
1373.00
872.34
491.59
922.15
1071.53
1037.48
842.37
1153.34
1847.98
890.76
1061.21
754.62
810.49
859.48
1415.10
2073.65
2216.24
1618.43
680.02
2570.28
1997.55
2748.22
2756.37
2856.66
2885.47
1396.61
857.32
914.37
1363.07
1139.77
2380.06
996.53
951.00
646.20
885.45
1738.32
2866.14
2946.05
2801.08
1072.03
998.06
2807.22
1550.89
1788.80
1925.16
1527.43
800.04
478.65
352.09
724.47
524.43
425.76
2058.29
912.92
1265.41
1078.46
1009.87
936.41
1228.19
1258.10
1273.45
1024.65
992.87
1242.84
1000.34
1458.36
1172.09
620.22
737.99
998.31
1549.69
1549.63
1456.01
1047.29
1288.59
1001.64
1310.79
1446.82
1148.69
1273.04
1052.39
1173.93
526.53
495.18
546.46
650.17
1265.09
1217.10
1315.00
1162.78
1139.95
1493.27
1731.32
1464.95
1266.89
1122.42
1022.41
1703.92
1663.69
1122.76
367.34
374.15
552.05
772.99
837.59
1211.42
1013.19
1243.79
1247.18
1073.61
1056.33
1043.14
629.06
186.19
385.47
368.83
323.67
388.64
532.46
746.01
952.13
886.12
607.26
1036.23
966.99
995.27
973.06
732.53
743.79
381.10
213.39
68.04
613.36
626.60
605.48
600.26
841.92
1126.99
1358.40
1481.77
1706.04
1358.16
1114.04
1326.52
1776.90
2816.00
2898.15
2677.80
1074.83
745.89
2011.02
2812.26
2756.38
2727.71
2133.46
1683.22
794.81
1021.79
840.37
1035.78
997.10
1121.90
937.95
474.30
543.51
516.75
542.64
688.81
752.06
964.22
1348.03
1211.51
1596.86
1054.32
1479.16
1336.03
1042.60
1046.76
957.15
1115.74
640.60
607.49
475.94
383.01
831.63
1513.58
1271.59
1008.99
938.84
1244.98
1414.06
990.99
1110.09
1127.20
1118.22
1139.78
1076.87
634.18
643.14
547.62
527.13
426.08
453.99
1039.60
1101.28
1360.03
780.42
936.55
1017.18
1237.23
1291.35
1660.40
1443.05
1006.66
628.18
639.70
960.37
978.11
979.37
938.69
1322.17
1291.14
1444.17
890.06
826.30
956.64
882.81
1294.75
1376.57
1091.27
799.46
948.47
1047.28
758.16
667.65
599.34
803.23
929.14
1301.73
1442.21
1344.44
931.80
799.27
1097.47
1150.19
1018.99
629.67
429.69
625.43
873.86
500.18
1338.19
345.74
931.79
858.99
920.56
847.45
1006.49
1024.08
1151.16
1094.05
1387.24
1524.57
1090.14
789.69
394.36
205.80
589.22
816.77
716.86
1140.63
983.33
1714.31
2518.89
949.18
843.06
1233.14
811.14
1060.74
590.32
549.55
568.32
435.90
407.27
1627.51
1030.49
1061.86
1326.83
1305.68
1263.54
1080.35
793.41
1285.34
1623.34
1197.02
2371.90
445.20
642.59
699.40
943.44
977.35
1091.95
523.19
942.32
956.05
773.17
2459.27
1151.97
1086.82
1074.87
1496.38
1458.01
1461.06
1352.18
811.51
611.55
862.67
2889.33
1527.90
1487.24
1065.79
807.14
974.11
1136.80
1102.37
1198.66
1222.01
1145.17
2354.05
817.72
1065.04
299.98
629.16
387.57
387.02
609.30
953.17
1135.34
986.33
729.53
977.53
1013.07
959.24
1075.59
1013.77
1135.48
716.40
344.01
1008.16
1345.36
669.11
518.48
507.69
820.10
1135.20
875.34
921.09
894.76
1079.16
981.18
1121.28
1295.77
1539.62
976.23
1078.50
984.08
1433.31
2040.56
2087.30
1756.53
1830.76
1225.17
873.22
1114.65
1207.99
1328.77
1537.62
1019.33
983.30
487.08
451.14
518.34
717.25
687.20
504.56
989.54
1672.17
1807.06
1867.22
1596.94
1220.36
958.48
1241.67
1107.37
1284.27
1226.00
592.06
680.67
1397.78
1438.21
1636.64
1172.09
850.80
1162.09
904.71
1227.71
1027.14
1001.03
868.83
994.58
1073.61
1053.03
616.63
579.40
703.15
583.26
585.15
807.26
419.26
828.83
965.94
1043.24
934.75
730.21
1172.26
993.29
965.40
1036.49
1220.49
847.94
983.68
765.62
1006.86
1476.63
1228.60
1767.30
1772.42
1192.76
837.47
1332.23
1512.54
1261.65
1100.08
1069.32
954.28
1015.45
530.69
363.27
286.73
310.13
596.71
487.76
397.14
752.24
998.33
1095.46
982.17
1091.63
1056.46
863.11
1314.79
1829.25
2119.74
2526.59
2286.60
1587.18
634.90
1579.18
2343.42
1560.77
1306.11
1121.69
1678.05
917.21
940.02
869.80
899.85
985.16
1031.16
513.19
764.13
1134.72
1907.07
1742.96
1240.87
661.57
1117.80
1165.65
715.61
1173.68
852.09
921.49
876.31
923.47
1361.95
989.15
523.85
277.72
361.59
660.92
277.08
892.85
691.22
1172.96
976.24
1791.44
2348.88
1764.04
1461.27
1210.03
1164.70
1167.91
903.92
878.34
1353.04
1613.16
1479.89
424.04
745.00
1546.31
1752.28
1530.17
1086.03
1266.55
1495.11
2055.77
1656.01
1805.53
1035.15
904.33
1408.91
1116.77
1256.85
898.28
631.55
525.47
959.23
1336.65
1374.10
1084.52
1932.92
2223.73
2127.65
1850.81
1210.91
827.14
1387.13
2156.68
2235.48
2540.83
973.93
530.90
675.70
960.84
880.72
966.69
975.77
706.66
1201.34
1218.33
2107.63
927.63
774.47
770.60
823.46
633.19
698.79
289.12
506.93
648.64
1044.44
1959.91
1305.14
940.43
914.80
1057.17
1003.61
1406.19
2417.69
2428.72
1432.60
494.24
2836.83
1613.18
1260.65
619.12
1020.21
1071.32
778.62
920.67
1276.31
989.69
914.55
2292.60
2510.21
2815.86
2460.77
1413.17
595.22
1094.86
1614.42
1657.63
1477.69
1247.63
2351.34
1310.53
881.35
1155.03
1167.63
1195.67
1186.09
1330.39
941.74
538.00
334.13
656.46
754.35
887.48
1069.22
907.97
864.93
913.97
1050.50
1522.70
1490.01
1344.42
950.38
988.06
871.02
1060.44
532.29
565.45
997.58
860.27
1208.86
911.59
1069.88
893.08
641.45
793.63
911.57
1045.86
1182.01
1188.70
1118.76
979.51
400.27
713.18
931.39
750.25
698.63
1014.79
1296.20
1220.56
1470.02
1246.56
1152.78
1018.24
1201.40
1271.68
1549.93
1934.27
1812.60
1179.20
489.64
552.26
860.60
1174.74
1132.88
1466.57
1727.11
1773.96
1315.52
1049.54
1026.96
1144.11
1305.48
1386.41
1292.13
1413.61
1329.42
478.18
577.86
410.66
347.85
528.04
762.59
1176.78
1049.38
904.22
1012.96
1128.81
1017.54
1435.78
1561.05
1983.72
1607.37
1033.77
879.64
591.95
822.92
1234.52
893.72
1088.88
1519.79
1433.58
1448.49
1053.99
1100.09
1025.03
1031.62
1035.48
686.48
504.18
777.98
1024.78
654.48
647.96
465.80
703.87
1013.58
1034.75
1012.24
799.22
1074.86
964.07
1225.45
920.51
1223.00
581.77
455.82
355.18
365.12
593.42
894.66
716.81
986.94
1193.08
1152.06
1300.00
1687.27
1430.89
1015.17
1122.30
1244.87
1197.67
572.99
467.33
745.69
852.05
1178.31
1266.82
648.25
1023.77
1163.47
934.39
915.93
881.91
1068.72
1569.81
1090.89
961.36
912.84
644.22
673.84
534.03
639.23
773.08
1004.75
1400.16
2011.10
1949.06
1710.32
938.85
1031.52
1161.06
1016.07
1090.06
1269.35
520.81
394.08
1371.52
938.09
614.87
352.80
455.38
1357.82
1529.04
1052.83
772.37
947.38
1304.68
2359.37
2914.49
2922.85
1737.45
606.48
1456.27
1343.99
1201.32
849.50
511.82
539.92
1992.95
1587.37
1194.87
911.01
946.25
965.05
1014.46
823.80
1082.47
670.45
411.55
1314.82
711.74
649.85
473.43
627.37
962.46
818.93
818.19
910.06
912.41
1096.97
1773.33
837.49
905.87
1312.55
1046.23
986.03
568.41
375.24
519.20
624.35
552.24
1922.50
2133.79
2212.05
1697.87
1387.96
947.83
857.35
1025.26
828.89
973.20
475.12
2538.44
607.76
530.85
918.49
973.52
798.92
843.31
877.22
1118.64
786.36
951.83
2556.49
1013.64
819.71
1204.93
1105.63
887.17
687.17
596.29
1061.33
1389.23
1312.98
2449.81
2574.53
2201.21
1221.89
714.33
943.38
1718.72
1430.70
1006.04
928.46
741.37
1687.77
415.38
297.60
465.93
903.06
1413.98
2049.51
2111.71
1800.44
1404.03
845.53
879.29
964.38
1255.73
1285.08
1438.56
906.55
606.34
1154.88
1003.18
1142.07
1055.12
678.86
1185.00
1304.54
1212.62
790.58
998.85
1198.16
795.39
866.98
1361.67
861.05
336.83
380.15
265.10
499.11
423.63
694.98
809.59
1247.88
952.92
974.08
862.77
1078.26
986.71
1143.02
877.45
1084.73
621.28
492.72
708.60
577.98
939.94
672.97
1003.23
1282.48
1200.04
1247.50
918.06
959.39
1799.86
2755.94
2814.41
2880.31
2734.72
2875.95
696.50
2929.97
2856.10
2841.38
2806.23
2794.89
2795.94
2872.15
2433.43
1110.08
928.28
974.21
1104.31
1017.92
1069.22
901.83
746.50
853.07
1047.90
1073.16
948.41
1041.41
1334.20
1510.25
1060.68
1074.44
1033.60
1177.64
1198.49
996.12
949.49
1080.23
698.50
550.59
289.14
608.14
745.27
761.13
501.70
1004.44
1288.06
1120.67
1116.83
1307.65
1425.63
1397.99
1172.77
1166.59
898.23
426.45
359.11
556.58
680.12
469.05
585.04
463.57
1047.25
1255.50
1246.46
1338.90
1125.09
1178.95
1068.75
914.25
1005.94
670.11
480.14
797.49
329.62
469.28
451.29
679.39
1044.95
1385.72
936.12
985.03
914.52
1236.23
847.34
1056.05
950.03
1032.87
465.26
1031.47
1160.20
1611.70
1107.92
554.24
752.31
871.24
1050.73
1020.53
723.06
802.66
1076.32
904.84
1033.00
1020.06
1100.31
1130.24
1016.87
253.96
439.23
722.08
422.90
378.84
1088.87
1166.18
1983.23
2340.97
2425.74
2083.75
1381.71
872.37
1915.72
2325.02
1769.98
720.83
596.44
974.63
1037.67
863.46
716.77
889.42
934.21
838.80
873.55
1157.15
1103.79
1109.22
1114.10
1096.96
1088.62
486.42
405.02
441.41
434.32
543.66
314.02
712.99
1037.42
801.31
712.27
1442.13
864.24
933.15
939.56
1246.78
1292.37
1301.22
999.94
1145.10
1754.99
1455.82
1724.35
882.00
945.22
911.91
901.97
778.68
1154.24
980.40
780.65
987.22
1129.34
2006.03
1544.79
1715.55
1772.48
1584.20
795.16
529.31
916.71
1512.60
1515.02
1233.86
2201.47
1105.67
895.42
948.69
989.51
981.53
379.14
695.58
574.87
902.27
929.64
2034.18
983.23
1406.52
1364.67
1557.31
1229.40
896.91
931.68
1194.24
1122.91
1095.05
2856.26
515.69
510.12
383.26
458.56
368.52
460.60
877.26
1217.07
1241.48
990.61
1886.40
907.70
1059.82
1134.50
1135.94
1227.62
1368.63
1332.91
1300.20
1285.23
677.13
454.24
783.76
1184.22
842.24
989.12
886.56
919.87
814.70
1398.01
1496.03
1316.80
1194.34
418.54
1183.27
1411.10
1021.49
671.65
417.32
466.71
879.26
997.94
1082.09
802.28
793.47
766.01
1110.88
957.70
1037.71
1114.89
977.90
1158.65
999.11
773.17
696.69
771.52
657.17
1087.34
1262.24
1306.42
1137.81
916.53
1139.02
1330.90
1252.03
1083.24
520.23
591.51
611.71
393.80
325.76
983.89
889.92
1040.92
1004.23
842.40
989.59
1193.52
990.99
1050.19
1244.78
1141.50
1407.09
497.58
817.21
1198.29
1077.29
912.63
287.85
441.53
1009.09
1118.64
1651.23
1357.94
1136.49
964.52
1035.75
1187.60
1555.15
1544.73
605.90
361.29
441.73
762.05
1070.18
573.63
346.11
930.11
898.94
893.84
1385.96
973.09
1004.73
858.57
1110.10
769.46
571.86
562.09
468.17
200.40
327.63
731.40
402.31
897.71
1153.16
945.51
739.49
1026.60
1102.57
1364.19
2196.65
2724.85
2146.74
780.26
687.05
1340.97
1352.06
1072.33
657.58
889.08
1510.88
1772.23
1913.02
1631.75
754.31
682.39
1671.73
1766.45
1084.19
776.45
598.32
261.39
1263.81
1617.16
1750.51
527.16
640.77
806.84
960.21
930.39
1586.29
2355.51
2076.63
2244.90
2404.67
2586.13
1490.74
792.53
414.15
1219.35
1436.20
2144.02
2262.67
2214.61
1794.05
1105.05
1431.48
793.61
1149.61
993.86
1224.79
1455.27
1526.53
1010.19
488.38
571.02
810.81
1036.24
427.31
399.79
1093.30
1249.66
1146.83
966.68
1198.06
1274.34
1097.40
825.55
1296.58
1044.48
489.11
1011.53
1815.03
1172.33
411.91
1279.88
1961.24
2875.30
2494.76
2379.45
969.74
1050.85
1412.24
1646.27
1446.61
1533.12
1613.38
1649.18
1130.05
693.44
1262.35
655.63
741.34
766.00
1059.86
966.29
1043.95
667.24
1421.57
1319.67
1496.01
2109.91
1676.51
989.16
407.00
1011.20
1983.18
1847.13
1458.61
1229.99
1352.03
907.94
2293.23
889.06
1020.57
925.48
1416.72
979.68
907.97
1052.24
773.10
674.20
1013.39
1945.14
1757.93
1775.16
983.62
1174.82
1002.96
1088.74
840.35
846.13
1011.07
969.11
2311.38
1257.97
620.28
583.31
418.19
441.73
228.92
311.84
456.07
771.55
1028.97
2679.60
1008.31
692.72
949.39
888.00
770.47
1197.44
966.59
936.68
1205.10
801.26
1704.34
774.93
417.59
478.71
797.35
744.91
922.45
1968.81
2863.41
2637.55
2999.18
1827.15
1136.10
1816.04
2924.71
2828.79
1964.15
988.05
416.33
912.15
700.23
823.50
706.82
1021.34
1245.36
1053.25
941.47
1358.15
1227.44
846.06
630.52
1009.55
1373.99
1721.07
1682.93
1452.26
620.28
763.08
781.95
930.96
1062.66
1602.78
1738.97
1349.43
1216.80
1108.72
1047.20
590.66
931.70
1084.72
533.77
445.65
923.85
676.34
1058.45
911.50
918.99
746.09
807.47
1118.73
1132.61
926.19
809.61
883.23
619.53
495.27
814.32
1253.49
1261.13
987.87
1087.34
1124.52
1058.71
1018.07
1001.93
1371.53
1883.66
2638.32
2886.58
2454.80
1387.19
850.34
2033.44
2181.27
2322.62
1999.57
1436.74
1153.31
1164.94
788.23
1097.41
957.26
1252.55
1746.81
2199.45
3006.84
2853.38
2536.73
1308.58
252.35
853.85
347.28
915.62
907.89
1665.78
1121.41
973.04
1240.21
2047.40
2080.38
2093.13
1932.93
975.17
926.33
502.92
294.96
367.98
340.53
856.43
1154.48
672.42
948.42
1172.58
1028.40
914.57
703.07
1005.66
1247.56
1538.65
1359.98
1048.76
973.14
377.34
718.54
1023.67
465.14
511.52
1305.27
1637.23
935.39
776.55
611.66
1078.26
1301.29
1771.47
1607.38
1091.05
507.88
302.11
334.02
702.91
479.60
430.50
436.64
1007.27
1146.88
1135.48
746.79
969.29
954.30
937.28
1014.64
1289.45
1179.62
704.85
590.21
1064.46
494.63
581.75
617.78
907.95
1096.42
1340.79
984.02
796.08
892.84
1026.42
1783.02
1689.37
1542.68
976.88
420.22
1560.33
1882.79
1928.06
1887.86
1506.57
1271.10
1279.10
1019.57
957.89
1927.55
2964.03
2736.22
1527.78
1143.18
1312.85
1478.55
1117.89
898.50
486.63
804.81
486.74
410.29
1155.80
1145.40
1211.88
1108.17
1116.19
1117.60
1589.32
1370.62
931.73
953.27
1204.19
564.35
439.81
841.67
1476.55
1320.05
959.30
1679.24
1062.63
738.76
840.25
793.96
878.47
1024.53
1223.89
1573.52
531.83
478.74
1303.86
376.37
357.48
717.52
951.55
1024.07
1067.70
1312.36
1245.66
1091.81
1173.53
2077.25
1005.68
1207.62
1406.32
868.01
1047.74
912.12
332.17
500.19
862.22
1106.95
2868.90
1147.26
993.37
898.50
774.55
1124.74
1171.17
1251.25
1426.35
2040.97
2412.57
2723.81
932.25
649.02
314.78
806.17
741.94
740.75
966.58
770.38
680.36
796.31
1746.74
678.20
912.79
1065.59
1062.39
1259.65
981.67
471.74
527.26
994.02
934.89
776.15
910.14
1089.52
803.44
939.46
1036.11
1067.52
1149.81
1114.12
915.84
647.43
388.05
528.83
780.97
771.55
1013.45
693.90
1232.03
1883.73
1954.82
1500.99
1803.35
1370.78
1390.64
894.09
851.94
781.92
196.71
304.20
756.51
672.02
653.78
833.04
565.04
1244.85
1271.91
1065.03
1056.16
1067.44
997.69
1222.53
1043.29
1088.11
701.58
467.95
240.22
742.23
523.37
569.59
814.66
1292.58
1340.84
1231.50
1154.25
1055.52
1130.03
906.95
1250.17
1360.12
1360.91
759.78
651.16
530.33
301.02
474.41
817.95
756.69
1155.95
898.72
831.46
906.98
1285.27
1342.74
1122.32
975.94
1202.06
1642.66
1091.60
1000.40
855.23
952.11
957.04
496.66
964.94
909.98
1076.89
978.74
765.10
928.88
1018.49
968.10
1093.46
1130.48
624.56
452.61
353.77
415.45
484.99
617.73
598.63
827.23
984.70
912.34
788.22
926.37
1193.02
950.99
1234.80
1101.43
1198.79
985.49
1188.38
1080.19
830.03
277.55
478.79
584.33
1279.08
1135.72
1017.04
804.73
873.65
1158.69
824.06
1045.34
1031.63
980.30
523.61
541.60
291.39
598.88
1211.51
894.41
1103.14
895.60
1324.28
1344.46
1101.10
917.89
920.71
1186.24
1083.14
1352.41
1167.24
1259.90
791.70
874.54
584.78
742.04
833.42
882.81
777.67
1150.52
1060.55
983.17
1503.81
1135.73
989.43
983.31
930.15
490.10
344.08
489.43
772.30
559.44
671.20
714.75
794.31
1050.43
825.17
660.64
875.39
878.24
791.38
1186.26
1356.57
1158.49
1182.35
746.69
638.77
849.49
1279.80
1282.26
1530.07
1774.45
1545.50
1063.01
581.03
1274.88
818.59
899.64
1076.25
830.43
907.23
924.25
1068.56
965.73
788.61
893.66
1335.06
803.63
1057.81
1099.63
1110.85
1047.89
993.56
954.85
902.55
1210.84
945.20
1318.28
385.24
432.27
1118.35
1581.12
950.90
620.77
1073.76
1021.44
752.62
838.51
1543.09
1128.55
1304.44
1661.87
2335.38
2118.91
1422.99
761.23
2343.23
2652.26
2335.61
2817.80
2136.50
1652.90
783.24
1042.16
752.98
1006.59
1180.24
1048.93
920.80
913.53
2475.54
1157.90
1347.34
1220.66
1138.25
1064.78
876.93
1257.30
1933.31
2375.80
2182.09
2904.23
1165.94
974.32
993.37
878.12
964.96
633.54
214.36
600.73
439.63
486.33
1141.30
304.30
912.01
962.71
1053.56
1199.99
1197.97
1108.79
1262.13
1029.77
1302.92
1866.10
611.99
468.53
523.06
517.32
421.52
737.19
652.15
1231.00
1356.88
1104.82
1042.46
936.93
1148.57
949.23
914.71
1059.36
903.02
573.20
510.28
447.12
408.56
477.72
374.34
796.20
959.86
1075.53
739.08
865.17
963.73
987.45
1072.69
1097.36
1119.83
546.25
1020.47
1561.90
1801.21
1503.91
1495.78
1328.31
1975.87
1361.75
924.37
833.73
800.22
983.69
1117.04
986.99
1129.32
958.78
383.42
489.77
372.55
525.19
572.95
863.48
414.30
872.60
909.36
1123.52
826.53
852.14
890.51
1117.21
1245.08
1257.23
1120.97
748.58
1063.33
1817.39
1866.50
1018.12
494.15
859.81
906.22
978.53
896.03
968.72
1188.38
907.85
1061.50
1129.86
1007.50
448.07
680.50
552.14
439.74
759.15
860.71
435.42
939.56
975.14
973.52
708.90
1028.38
1227.71
1188.21
1000.70
1089.62
1286.42
905.70
853.13
998.88
966.87
959.19
800.74
213.43
946.74
1184.02
973.08
1443.80
1254.73
1069.06
946.64
1396.55
1328.99
1003.10
459.96
550.27
593.19
534.00
870.88
751.53
871.84
1110.05
988.65
879.05
911.89
1120.23
1088.73
799.99
1005.13
1136.63
907.35
982.59
715.26
384.41
526.08
546.94
243.33
946.00
1073.49
1112.43
1264.70
1312.47
1326.37
1100.13
904.02
912.95
985.02
606.38
769.74
564.28
467.06
934.03
432.44
643.38
1045.81
1066.68
899.56
847.32
1067.38
1034.33
1183.90
1076.29
1282.97
614.08
766.30
520.16
449.59
609.64
774.08
950.60
1170.47
1289.85
1753.91
1364.39
944.01
905.62
1103.97
1118.28
1155.34
1109.77
1140.91
2835.73
2957.97
1872.20
1371.78
561.20
1705.35
2972.89
2894.07
2172.18
1217.76
1479.20
1251.51
1255.47
1294.91
1777.31
1435.19
746.76
481.40
487.96
663.01
719.40
1009.42
1413.63
2292.65
1573.35
1623.55
683.05
965.35
1058.15
996.97
1184.58
1468.11
1314.60
758.55
528.77
673.95
1429.50
738.29
878.50
975.28
1590.29
1799.33
1370.83
1164.94
1047.50
1004.66
991.98
2515.11
1015.98
554.79
453.30
459.96
182.87
301.65
442.58
503.35
861.80
1122.40
2219.21
1201.31
1123.42
928.57
963.84
1175.88
1169.22
1107.78
425.96
705.75
1082.20
2773.79
618.61
560.27
808.65
711.56
1164.52
921.16
829.87
988.67
988.39
786.97
2584.54
1535.14
1566.92
1471.88
1069.16
749.19
726.39
1105.25
868.31
857.51
1119.68
1238.15
944.72
913.16
1162.77
952.23
1295.50
1484.08
1095.17
375.92
506.72
438.28
773.67
1054.96
631.44
520.21
943.07
882.29
1046.86
731.06
768.01
940.92
1031.74
1055.54
916.70
927.50
537.87
645.01
1505.11
2186.86
1919.75
803.99
560.62
948.68
948.31
672.22
873.01
1058.54
1567.95
1104.38
995.71
1068.62
806.15
914.10
751.10
759.97
996.52
1196.10
956.06
1129.60
902.25
996.19
900.63
977.78
1013.93
1098.20
1196.89
918.67
1286.96
913.30
684.24
546.10
594.61
390.06
302.22
305.80
998.64
811.34
1092.24
734.46
932.25
1058.59
1002.36
842.56
1053.20
990.97
551.37
327.53
628.25
455.44
428.13
673.70
552.03
790.40
846.28
938.19
888.26
818.51
937.32
1099.81
1163.88
960.50
877.71
801.05
822.56
1093.67
837.93
395.71
587.60
930.68
1154.47
1621.04
1553.63
1604.74
1677.41
1439.16
1135.24
998.71
1082.66
1237.29
1340.82
1281.50
745.63
338.70
524.31
478.55
855.39
919.73
1010.26
878.62
924.17
993.11
987.72
1074.83
1164.05
1078.26
650.36
421.25
599.81
774.37
731.46
705.70
1432.31
2365.13
2424.48
1603.35
665.34
722.98
939.88
1033.77
1064.21
942.37
632.96
585.56
364.54
608.20
378.39
370.25
557.07
772.51
956.68
982.43
793.73
950.88
1047.82
1160.58
1559.19
1101.97
1026.12
484.70
809.86
952.02
1258.99
1055.43
663.78
479.43
946.52
1323.55
973.05
760.13
933.83
1019.35
1089.08
1206.02
1157.34
1211.44
980.12
758.10
1089.52
457.67
614.92
1397.87
1782.38
1803.14
1272.17
869.16
695.14
1396.77
1137.57
1603.90
1057.49
1055.13
817.90
327.66
595.01
1106.00
1000.09
893.69
442.66
924.41
1660.57
770.52
1043.46
909.57
1260.58
1218.12
1329.01
1302.80
1025.36
723.55
399.29
1038.50
398.42
491.86
314.46
504.75
1005.32
870.98
1016.65
813.53
836.88
845.33
2019.08
1097.96
1126.39
800.41
754.09
497.61
296.25
393.70
832.92
890.57
1194.02
2199.08
822.02
703.68
1063.53
749.78
1332.22
1496.36
1547.48
1136.37
550.37
1051.69
2984.88
631.38
460.61
325.27
689.04
670.80
1001.66
1101.07
1199.40
1206.86
966.45
3036.59
1046.06
1270.98
983.31
656.16
542.81
445.29
687.48
682.74
619.41
314.59
2474.83
1115.66
1794.14
1212.97
1034.04
1007.16
1005.66
1105.65
953.74
1049.43
729.72
865.68
615.20
551.66
411.16
616.88
368.57
853.60
793.79
852.78
989.23
923.57
1012.61
942.62
1044.90
1191.49
1774.14
2245.53
1970.17
1738.17
827.73
358.20
754.56
968.55
1102.06
721.72
764.39
712.74
995.19
948.44
980.61
1020.24
1258.02
972.67
569.31
615.33
503.30
404.09
545.16
364.00
1453.73
2095.22
1550.40
1089.60
948.36
837.43
1009.83
1071.50
991.23
1012.71
448.99
718.09
942.58
1180.55
991.52
825.73
1034.04
1879.75
1588.19
1255.21
815.37
1032.41
1383.14
1053.62
932.29
908.04
595.59
445.41
607.29
860.27
527.70
545.68
587.96
787.13
1155.31
1339.68
921.57
881.95
872.40
1255.07
1210.66
1370.58
1040.70
573.93
550.84
1080.40
1112.70
918.77
1076.05
842.29
1113.94
951.35
1004.77
772.92
958.50
1020.63
866.90
965.07
1176.25
873.47
307.65
633.98
573.82
481.08
510.08
429.05
704.48
973.48
876.16
905.86
740.94
915.00
1049.51
905.84
1258.21
1649.40
1808.78
1124.11
670.87
1022.88
1318.87
1553.23
1348.57
1219.29
1092.54
1007.06
952.79
1067.16
781.79
822.58
1143.80
1084.71
1084.00
972.03
1349.86
427.11
537.49
758.05
875.61
765.14
990.30
978.02
847.57
1052.49
1627.66
1195.36
932.86
1099.21
938.40
1245.75
734.90
756.48
586.80
803.15
578.58
399.08
908.17
1175.37
1091.42
1026.63
946.91
1210.93
1117.60
1101.76
923.26
888.44
703.92
754.32
501.05
387.48
722.37
1294.24
1631.17
1327.36
860.66
1063.06
919.22
961.16
1349.52
925.76
882.65
955.54
1219.25
899.35
942.08
1325.26
1082.86
736.51
909.57
1576.80
1977.17
2192.47
1902.45
995.30
1035.81
1113.68
1691.85
1517.50
1349.65
1021.85
1386.70
488.48
766.15
711.22
1050.02
1049.42
820.31
1013.67
1751.08
1558.91
930.93
1752.92
921.07
956.45
920.61
1020.59
1144.27
1858.03
2122.00
1893.62
1604.74
1375.65
1907.75
1205.91
1679.88
1716.25
1628.94
927.65
987.67
843.89
1067.22
992.95
1651.33
3078.32
463.57
630.23
802.79
801.76
727.36
589.01
1666.24
1954.88
1835.32
1076.57
2844.24
1092.93
968.81
1063.75
1159.41
1185.11
837.50
508.37
481.48
337.57
460.52
2251.31
717.25
1426.12
1753.86
1717.47
1336.76
1169.42
1034.53
1067.08
1309.60
1516.15
2740.50
572.75
863.17
932.77
816.01
615.63
520.06
776.02
975.18
991.93
988.34
1292.57
1133.01
859.35
1001.91
1062.63
994.15
575.62
633.69
787.76
1029.85
1066.90
1063.74
1083.85
2016.80
1849.54
1903.60
1531.10
1450.92
1084.11
1674.80
2338.61
1813.38
1661.68
933.15
425.09
307.71
237.80
589.59
295.15
509.09
948.46
997.84
825.39
750.22
937.63
1111.30
1231.19
1443.76
1534.80
1698.73
1308.15
979.46
877.92
870.97
358.70
514.29
648.93
868.55
920.45
724.01
617.30
831.92
1009.48
926.51
1429.81
1239.41
633.37
1082.93
491.45
756.46
410.06
588.88
480.75
1022.90
828.55
1018.31
906.73
862.67
1244.92
1659.69
1985.99
1886.04
1269.41
505.11
419.18
446.52
316.57
806.34
563.71
539.09
1222.09
893.11
1314.67
1022.38
944.69
1052.17
965.15
1008.14
966.85
877.94
1172.23
1294.94
1178.55
552.20
256.05
710.37
757.70
881.97
985.32
969.26
955.49
988.25
978.20
1180.51
1247.54
1214.42
749.17
586.24
444.82
407.17
604.99
932.90
870.31
1133.92
1044.39
1133.06
790.98
825.63
1155.19
1071.85
1028.30
895.89
1084.69
797.61
891.47
684.93
377.27
541.94
830.92
427.63
903.72
1009.11
933.24
1342.34
1017.09
884.78
1037.91
1203.63
959.70
642.77
917.98
937.48
771.99
960.05
1312.51
1017.41
1136.18
1185.49
954.82
731.66
768.49
991.05
957.19
710.64
1071.97
1442.54
661.96
383.69
490.23
637.68
714.65
793.00
624.25
1045.81
1053.50
1382.21
1323.91
719.61
1051.21
845.23
1206.92
1070.15
1042.51
610.07
568.15
675.77
319.89
956.60
345.95
509.40
1198.48
1237.06
1320.99
1161.44
1202.85
1345.67
1109.36
1139.44
1361.32
910.91
546.33
612.44
458.86
432.89
804.16
349.64
629.92
1057.85
1035.74
1315.86
1001.06
909.53
1299.75
1458.72
1407.95
971.55
526.32
312.63
576.35
402.24
1397.10
1470.23
1493.71
1495.60
1496.35
1076.06
863.44
838.53
1302.97
988.88
1234.61
1794.20
984.80
260.58
418.90
647.16
783.55
627.22
277.50
731.25
860.50
1014.69
2190.97
930.85
1062.98
971.17
1135.82
1128.48
973.77
676.41
735.70
1083.89
1652.85
2320.74
1754.48
1159.21
1149.03
1080.48
1048.02
1182.33
1056.72
1088.75
1176.11
1345.70
2793.99
1014.06
656.83
535.93
634.52
833.26
707.52
559.85
558.63
1454.49
1363.27
2870.40
1042.62
1034.64
871.69
1127.83
1227.78
1280.57
1236.28
744.97
715.03
449.80
887.21
718.13
611.36
768.34
1002.57
1349.62
1239.59
1192.40
1102.67
967.19
1201.44
1001.26
1122.89
695.31
472.03
505.17
411.08
476.53
476.95
566.89
900.68
983.67
1039.05
916.84
780.86
983.00
991.76
1153.58
1081.63
1136.94
774.81
840.60
369.88
264.90
425.97
435.05
813.62
1569.79
1611.92
1904.37
2083.33
2237.05
2256.24
1217.06
1031.22
1262.97
2267.35
2812.91
2403.49
1283.76
464.66
462.47
538.48
928.91
1453.28
1246.49
994.17
1021.04
1164.83
1008.97
1151.96
951.26
1113.07
958.96
698.73
545.38
764.43
977.53
652.70
571.95
1013.49
1187.22
1013.43
1026.54
1047.85
1197.59
1207.22
1344.87
1176.52
1268.36
658.84
663.90
408.61
685.34
1273.45
1251.35
682.83
1124.10
1389.39
1398.98
976.84
1050.88
1037.88
1057.81
1093.26
1173.80
1276.66
1411.10
1736.00
1299.63
699.13
575.19
1207.93
503.58
1013.18
1218.06
1257.49
888.81
895.60
1067.36
1181.56
1313.05
1382.10
971.09
713.59
474.07
300.77
556.48
473.35
434.76
1198.08
1065.08
2633.98
1452.02
1593.45
1052.02
1135.99
1071.10
1153.80
937.01
448.26
634.03
523.48
2086.43
500.68
697.39
382.92
1286.37
1096.64
1079.87
812.39
978.95
1003.60
1164.44
1154.05
1239.45
1139.69
765.43
1501.91
1372.08
1085.17
708.73
347.55
705.89
1230.07
1016.64
912.15
959.65
1076.52
1032.68
935.25
1188.50
1194.37
756.56
578.05
766.87
573.07
876.52
701.96
616.40
1039.31
1187.81
1052.70
1033.33
1036.14
1354.64
1401.33
1241.03
1352.05
992.90
578.62
375.26
487.18
702.97
424.34
434.83
435.11
892.82
1228.53
1731.47
986.88
945.76
1071.70
1044.20
1067.11
1089.97
991.35
722.90
1107.18
959.38
1105.03
799.38
603.77
617.91
1075.84
1012.05
1133.14
1268.60
1350.51
1299.45
1083.60
1563.25
1082.93
497.51
358.32
512.58
609.70
428.98
476.16
662.83
1067.49
1021.28
1080.30
951.31
887.30
929.15
1016.65
984.12
1116.40
1043.72
1081.65
1088.53
539.96
605.60
542.62
558.17
456.06
943.59
991.46
843.24
701.02
1014.88
1234.64
1184.62
1067.24
1521.08
1166.84
908.01
899.85
991.64
1437.51
1320.73
909.33
814.93
1074.37
1549.05
1527.36
804.03
936.80
1028.96
951.86
1119.43
1320.66
964.54
812.00
350.40
477.38
1170.90
751.12
982.13
1319.90
1416.36
1488.90
1220.77
1034.52
1029.81
1161.79
1192.63
1402.91
1234.33
396.02
267.70
601.20
573.25
413.49
668.00
511.60
1098.08
1076.62
1456.49
891.41
930.84
937.24
968.29
970.01
1116.77
1306.76
965.54
293.11
406.40
1277.27
497.63
522.17
770.69
1073.08
1128.42
958.78
959.16
1236.54
950.20
1160.94
1819.71
1307.45
739.54
638.33
525.75
526.87
414.49
810.73
408.18
985.52
919.09
1089.01
1116.01
764.30
1080.39
994.72
1082.06
1028.38
1249.94
716.80
457.95
847.78
1023.56
808.95
481.90
614.40
1830.85
2330.41
2316.34
1421.87
1203.18
1438.35
1236.49
1109.21
1105.45
1040.44
650.64
359.51
506.57
700.71
562.80
511.81
797.69
909.54
1300.04
1530.52
1008.21
883.90
1030.42
1052.90
1184.12
1265.35
723.10
392.84
246.83
673.32
1426.60
337.25
504.49
1245.86
1091.46
1042.83
997.21
751.23
1080.34
999.95
1049.97
1329.56
1342.70
1072.62
1018.37
557.55
410.61
1212.08
1667.69
1892.28
1814.29
1364.63
1251.00
835.57
1048.28
1254.74
1714.12
1699.33
1550.84
1465.69
777.44
556.57
615.35
387.07
781.79
923.39
948.35
1529.31
1540.80
1362.39
985.59
981.46
977.29
1076.49
1366.13
1411.43
932.70
451.22
481.68
1099.21
1930.80
1781.00
1119.68
1065.81
943.02
925.27
1207.49
1045.35
1298.47
1186.15
1151.19
1097.58
1557.42
1674.79
1447.49
1197.13
553.57
528.84
735.13
786.95
1346.70
1025.14
965.24
779.00
795.83
836.44
1111.28
1030.33
1357.54
969.37
739.56
546.77
972.88
908.75
317.25
442.20
900.20
1011.35
1283.10
1215.03
984.74
1047.43
1419.19
1252.84
1373.94
1825.81
1719.67
1324.74
978.00
353.13
440.43
436.34
455.39
866.97
1005.69
960.76
1037.25
702.83
1081.94
1120.35
1002.24
1251.75
1047.19
504.63
596.59
966.40
1347.55
1113.29
873.03
922.02
914.01
1158.70
1139.36
1133.43
907.13
940.13
1273.32
1173.98
1177.19
1159.43
809.17
594.87
708.37
716.77
902.34
1441.84
1624.06
1224.06
973.42
1025.98
891.20
1381.61
1190.16
1381.14
1473.66
1044.08
776.74
345.89
585.82
429.26
422.98
366.46
794.93
1113.18
984.98
1242.01
1078.66
1045.39
1086.53
1424.44
1067.42
1207.90
1205.55
536.63
517.00
677.27
1027.72
810.69
585.97
873.83
1400.92
1299.97
1000.16
846.11
928.90
1119.43
1222.63
1240.82
1448.43
1341.72
1113.47
1095.25
820.87
811.81
684.29
625.90
1055.67
1046.20
1306.14
969.85
971.39
1006.40
1091.49
1653.85
2364.67
2214.01
1438.85
406.25
677.41
1188.88
1169.91
1402.34
1193.54
1266.39
1095.01
1163.57
977.04
1480.15
1328.47
1119.97
1685.90
1022.74
1166.89
444.79
865.26
1041.07
1035.11
534.13
420.48
664.42
1100.49
2042.55
1077.01
914.23
970.16
936.59
1092.10
1000.23
1059.27
986.52
474.27
355.31
1606.62
494.34
797.55
462.25
929.20
1357.24
910.15
956.44
880.59
1002.12
894.54
2346.45
1255.84
1169.68
621.74
573.81
734.57
736.60
304.75
852.08
1037.42
1121.55
2828.16
1060.63
1137.51
931.26
1153.64
1108.81
1224.22
1575.38
1555.87
1356.60
1160.94
2108.76
443.42
1000.96
711.29
467.41
1157.51
1441.47
1356.49
826.15
948.62
931.58
1361.47
1819.85
2249.02
2038.06
1278.41
611.85
668.86
1448.19
2403.45
2144.90
2070.14
1842.53
1319.43
959.97
970.17
916.41
975.89
962.91
895.75
974.43
601.41
547.49
539.82
507.96
660.50
617.27
625.13
965.03
1138.50
1304.03
1464.25
1511.58
1382.40
1047.89
995.65
1216.34
1060.45
425.59
447.72
448.63
574.17
683.03
582.07
423.06
1032.12
940.34
975.43
1001.92
900.49
1164.79
1007.24
951.64
1037.22
1087.80
484.10
532.87
850.63
670.21
661.49
452.51
1065.86
1945.91
1741.69
1286.97
890.27
1097.40
1086.14
1154.81
1106.03
980.37
783.54
554.33
423.16
253.92
888.24
1548.78
1294.00
1415.94
1099.43
870.27
1051.59
1105.83
1400.47
1796.44
2459.48
2826.75
2763.72
2319.87
786.49
1141.34
1899.75
2063.47
2078.42
2071.72
1269.59
1002.92
985.94
998.19
1232.70
1346.18
1070.51
1237.72
982.77
1027.92
570.23
983.09
972.78
1353.95
1253.37
917.01
563.37
1102.81
1124.13
1391.20
1463.35
1103.92
837.18
973.89
956.31
1073.24
877.55
859.08
760.63
728.53
653.81
405.01
355.02
826.08
1355.31
1555.55
1194.12
1427.21
1174.15
1283.81
1242.06
1114.85
1015.96
553.27
597.26
654.61
634.93
680.64
620.36
351.14
1298.94
969.62
904.79
719.83
706.91
1084.16
734.50
1007.29
1070.05
1178.23
863.62
1062.76
706.82
495.15
501.50
493.94
452.70
1093.60
860.70
1035.59
889.45
895.68
1205.53
1116.00
969.47
1041.71
564.04
382.91
452.63
563.89
578.23
859.41
994.90
1996.41
1001.01
1020.94
1057.78
858.12
923.72
928.30
960.02
888.78
989.37
727.51
1995.78
976.88
1224.36
749.84
760.60
381.76
1123.52
960.12
1020.74
668.92
1077.90
2802.79
981.97
963.10
1248.12
1148.90
646.92
368.78
456.05
492.55
630.92
978.94
2005.83
1161.35
1245.16
1016.94
1085.14
1178.34
963.18
933.57
832.52
1090.44
678.17
2725.64
1017.95
500.98
628.14
855.87
767.82
816.46
1071.69
811.22
618.86
824.16
841.57
1274.08
1025.31
897.09
920.79
514.06
590.92
608.02
363.29
473.64
339.05
507.54
722.59
809.10
937.61
817.87
669.30
1028.58
1280.77
1441.97
1570.20
1119.15
514.93
318.37
606.28
451.58
538.07
904.38
880.08
1129.45
1243.97
1128.70
974.71
1357.44
1519.45
932.66
1114.74
945.76
555.58
404.55
327.00
476.68
501.40
556.96
921.19
896.03
1009.44
1197.50
714.56
848.43
809.37
1177.65
1136.96
1142.40
1150.13
742.91
654.78
847.65
980.96
760.44
690.78
748.64
1353.44
1394.32
1351.58
1216.46
1376.48
1080.71
1255.13
1124.82
1164.42
1115.22
402.25
377.47
458.96
693.09
492.25
521.23
1037.61
1282.08
1016.91
990.73
1020.56
976.91
1062.20
1056.53
956.32
982.81
679.29
186.68
609.38
792.82
1015.04
991.40
1056.83
1642.82
1967.96
2501.76
2234.33
1885.26
1465.92
1240.92
1209.57
1748.86
1867.93
1535.46
1137.26
604.02
525.38
414.97
349.86
569.26
1319.16
1208.19
991.60
947.37
1057.01
1004.59
858.99
1088.95
1050.13
1098.69
692.25
820.31
899.98
587.41
574.63
680.34
793.32
1090.35
974.87
1236.54
1630.29
1891.36
2568.54
2405.13
1734.63
1088.09
639.22
1578.91
1446.42
1189.26
876.50
283.50
323.75
1441.60
991.98
1075.03
1110.44
1174.02
974.58
992.47
1004.91
930.88
952.41
713.47
1702.04
1206.15
1014.74
749.63
596.40
674.62
1227.22
1211.46
1459.38
1364.71
1460.57
1806.07
904.38
942.65
998.56
1006.12
727.81
696.47
608.64
618.74
412.65
607.86
1956.11
817.96
823.02
917.12
792.96
902.36
843.31
1311.28
803.60
881.36
706.38
1984.88
645.21
526.18
709.04
1372.42
1536.88
1932.24
1710.83
966.30
879.26
1000.50
2915.09
1020.61
1035.23
1126.44
1186.56
828.91
975.56
982.05
751.87
417.67
606.90
2667.64
969.49
1495.34
2259.83
1968.04
928.53
1660.58
2356.20
2913.19
2887.13
2218.18
2891.55
902.64
429.71
446.83
730.54
469.45
487.52
931.90
900.05
874.93
846.01
1190.29
1384.09
1168.79
778.07
956.81
479.64
513.23
464.95
584.35
700.72
203.01
361.51
872.76
1064.31
980.67
988.68
837.73
870.12
1363.92
1251.95
1074.67
1195.11
907.15
430.05
472.97
333.24
476.84
704.40
900.17
1551.36
1665.05
1203.44
781.49
1012.78
1126.79
948.13
914.05
1004.74
1177.02
711.31
687.21
844.94
455.22
431.34
809.16
1008.68
1069.73
1533.83
1010.52
727.17
987.79
962.02
1134.61
1160.27
1067.53
697.99
590.27
665.35
911.85
833.61
600.61
763.35
1047.68
856.46
1452.73
1146.52
1140.09
1290.77
1045.01
1047.02
1139.87
1167.60
768.87
982.03
733.89
444.67
523.74
635.82
732.18
1089.24
1153.59
1011.67
766.40
971.08
1096.47
1085.77
869.86
1134.92
973.41
839.21
480.21
622.25
737.06
642.36
567.22
860.26
1303.06
1246.61
1138.78
1071.26
2695.42
1135.26
1062.57
1009.22
840.51
386.88
252.85
589.65
663.51
281.30
620.06
495.75
967.54
943.38
875.57
869.01
1111.44
961.06
941.48
863.58
629.54
1236.61
1166.09
1762.46
1261.02
629.43
590.27
812.35
766.08
915.05
1013.95
782.75
663.54
872.06
1560.86
1477.13
1963.99
2745.95
2817.58
1864.82
928.09
453.24
1074.17
1314.02
1581.95
2670.67
1549.55
1023.33
889.81
878.28
842.15
948.43
944.45
916.18
1090.76
765.01
1511.33
713.36
869.71
762.84
998.55
878.58
1153.18
1129.89
901.49
659.24
634.05
1755.23
1074.58
862.13
909.36
992.22
451.32
564.29
220.04
437.29
806.24
483.81
1523.18
899.19
819.71
873.19
918.81
938.00
925.14
1042.09
1259.25
1164.60
1121.43
2259.76
630.67
969.64
975.69
1097.05
547.55
733.16
848.95
823.30
798.63
721.81
2741.52
1104.66
1202.48
1424.08
1082.87
536.25
1097.24
1375.19
1245.25
632.11
477.08
2474.15
783.19
760.51
725.30
862.72
801.30
897.72
885.04
1021.99
1034.88
1076.40
1512.31
711.33
1112.36
526.27
481.52
424.83
575.40
1230.49
1313.03
1934.55
1659.54
1753.82
1644.16
1269.10
1090.60
988.85
813.72
597.44
273.90
211.52
480.85
591.75
657.08
1015.34
1663.92
2817.47
2406.05
1349.59
832.69
1093.75
1371.92
1458.56
1584.00
1276.34
935.93
756.37
578.67
404.16
210.07
376.03
1130.00
1226.41
1266.09
1180.80
960.58
1029.90
1263.36
1398.72
1098.03
1009.24
421.90
429.04
492.53
364.58
530.63
439.61
454.49
752.42
727.15
865.22
828.54
702.90
865.43
1126.67
842.99
1015.45
764.65
631.61
512.27
222.90
343.90
574.96
545.53
617.81
1365.31
1463.52
1189.23
1072.64
981.92
1225.42
1090.37
1097.43
966.33
866.29
849.86
1401.18
1273.40
844.51
356.87
720.48
1255.44
1507.07
1563.69
1118.30
1197.73
857.14
1068.88
1054.61
994.93
1274.89
997.15
1536.44
1203.44
1338.96
1419.24
1036.24
858.17
1461.03
1414.60
1407.36
1031.89
817.31
1083.92
1265.39
1370.84
1495.17
1037.75
583.26
1373.52
1576.43
1058.57
302.36
483.14
794.72
1073.77
1230.77
1060.76
1134.96
1022.27
1321.20
951.42
838.79
804.18
388.48
449.73
470.20
503.59
741.50
684.94
1048.57
1257.70
1090.96
975.75
847.89
881.29
1074.36
1118.22
1473.78
1400.47
1196.30
522.28
474.18
799.05
725.36
324.76
295.93
645.27
1034.85
1018.82
970.85
622.26
1012.32
1005.03
1035.42
816.52
1011.05
871.01
847.81
625.75
593.62
327.63
577.67
580.08
643.77
1336.12
1317.25
1452.56
1599.06
2106.20
1881.77
1391.83
892.28
1128.71
734.27
850.82
807.36
692.92
550.05
486.87
605.48
919.71
711.88
888.87
1007.50
996.23
1392.53
1250.18
1134.95
978.81
890.02
860.45
792.11
726.92
537.89
266.17
497.17
657.06
807.75
794.97
961.44
702.89
1407.54
1370.79
1634.20
1252.12
989.10
1040.23
304.23
593.22
950.81
1098.99
690.51
1527.34
416.01
964.12
872.49
933.19
855.61
851.84
877.86
870.23
1066.54
901.87
2387.43
371.54
269.67
474.99
459.75
647.61
530.69
751.36
1206.62
1251.65
1085.23
725.75
1176.92
873.90
1174.07
1135.98
1393.15
1299.97
580.80
322.30
478.63
809.09
588.44
973.08
1107.07
807.08
737.30
588.23
894.18
942.52
1094.74
985.57
1117.05
1027.82
1536.45
1441.64
1232.90
800.69
320.30
1054.43
916.00
898.67
1210.58
1310.20
1325.42
2065.91
1093.62
862.65
979.64
824.96
789.56
636.37
595.69
326.31
365.57
286.12
2396.66
844.48
1059.24
927.67
876.64
852.69
899.58
766.24
1095.26
835.89
1028.43
2688.18
616.89
877.36
1470.72
1269.94
1192.96
828.84
1434.80
1114.34
1138.09
570.38
1599.93
981.77
1134.73
1312.26
1245.29
914.02
416.84
731.53
1469.04
1570.34
1330.34
1799.02
526.66
1056.62
976.03
999.44
806.55
712.21
923.79
822.16
806.59
841.89
539.68
560.26
724.99
805.39
1279.94
1398.47
1160.40
1353.00
1349.99
1270.91
1221.31
969.84
1132.42
1050.16
905.84
908.51
1015.25
476.39
410.34
260.23
571.46
477.62
605.51
723.11
833.77
945.83
1048.74
967.25
985.81
1059.04
717.62
873.30
1063.04
883.14
668.36
591.54
964.77
663.47
423.48
567.69
745.53
933.00
1261.93
1173.44
817.41
1334.27
1191.88
1209.00
1030.31
968.33
541.97
458.75
333.11
560.77
595.14
257.58
408.55
1036.15
613.54
914.50
1042.59
920.20
1293.39
993.69
860.25
979.50
1019.64
357.81
438.24
374.59
639.84
812.84
1657.68
1959.84
2209.53
1761.76
1640.40
1552.00
1624.50
1192.06
954.08
1415.38
1266.42
1562.84
1303.76
328.39
369.24
570.90
650.54
674.25
647.84
933.09
606.75
663.47
850.99
919.11
933.27
1132.05
834.14
854.63
1251.89
1463.29
1251.19
831.27
321.43
1309.81
1410.87
922.31
971.37
1209.13
1662.41
2478.80
2635.03
2862.41
2643.97
1346.80
991.50
1659.32
2558.89
2825.25
2596.28
1774.10
1393.32
380.14
1011.83
870.92
1027.02
835.26
952.92
987.30
1275.17
1443.14
1748.97
2113.60
1834.94
1078.30
903.15
682.18
415.16
641.43
734.21
786.29
1110.41
875.83
1702.80
863.05
901.45
992.46
1187.85
1078.96
664.24
718.47
871.68
738.68
844.87
1608.09
395.78
863.97
797.23
750.84
799.15
941.96
949.71
882.64
1001.37
979.56
2438.68
688.43
794.85
793.41
954.79
744.11
921.79
742.18
1423.68
1319.89
1154.19
2215.23
1157.14
762.95
909.16
762.48
986.23
983.67
463.99
482.00
427.89
516.83
2435.32
937.56
926.45
1123.33
1086.48
1023.58
861.41
610.08
883.48
827.85
876.55
1795.26
720.74
875.84
750.15
662.16
798.11
722.77
620.56
973.27
673.90
985.83
761.13
909.85
803.51
802.95
989.44
1065.53
1008.44
632.11
541.94
373.48
258.03
271.12
478.19
415.09
1000.45
1092.54
774.80
793.66
1043.27
884.01
964.79
713.95
1094.72
845.19
611.51
520.54
964.70
1293.87
1588.66
1307.07
996.51
922.31
869.66
863.76
617.29
797.60
1287.37
1060.19
1036.01
951.86
644.70
542.21
657.65
522.29
544.61
482.24
377.23
747.01
1111.46
713.59
753.57
800.04
1235.87
1009.84
1205.61
1369.42
1129.62
565.02
140.58
663.32
1136.07
826.90
578.99
478.83
866.15
1020.54
1211.24
1261.35
1466.58
1206.97
1014.49
914.96
1398.11
1115.13
381.93
707.32
621.85
466.87
509.68
424.38
954.70
878.97
947.86
783.96
863.85
880.34
1159.30
987.05
748.90
1080.48
718.33
543.65
558.28
580.77
594.63
427.08
446.59
1027.03
1294.99
1087.25
2212.17
1059.50
1208.59
1164.66
1271.32
1526.28
1712.27
1288.37
842.76
377.42
691.14
2658.96
1179.95
983.80
1210.47
1167.56
914.23
840.81
945.96
791.10
921.93
984.90
2735.19
922.26
643.89
597.80
526.49
755.10
363.14
866.33
1045.69
1230.50
1191.60
1758.88
1023.57
1185.92
1244.39
992.03
1211.79
1281.11
929.58
547.29
325.85
443.69
444.97
543.55
794.27
929.82
1038.24
1230.91
1304.46
1353.39
1134.58
917.61
998.24
1399.38
1290.42
421.47
688.74
490.13
1479.73
1950.61
1886.08
1437.10
906.76
1100.98
1926.30
1981.36
1725.97
1949.30
1909.77
1522.06
1295.78
729.40
411.54
888.09
1191.94
806.67
393.29
419.78
402.68
742.20
1057.87
864.78
801.53
832.26
889.26
1014.58
1212.25
1494.40
939.17
679.31
453.42
594.00
1452.28
1404.96
935.01
785.31
1439.40
1279.00
1257.49
1009.64
1059.72
1075.45
1128.65
1085.48
950.24
362.48
435.34
783.73
978.59
1001.96
608.38
268.75
924.09
876.02
931.79
773.64
936.39
914.33
1116.76
1196.62
1212.81
1039.69
947.93
797.17
984.22
798.31
483.53
576.34
534.33
854.37
1093.35
985.95
867.27
902.35
1418.31
987.06
919.28
1117.52
861.58
648.86
486.04
426.98
1303.19
1027.07
609.92
785.92
941.44
824.13
947.45
1008.23
969.01
738.48
969.71
1342.64
891.79
551.39
549.38
720.91
808.42
629.61
354.67
402.49
854.63
869.43
1734.68
907.33
961.32
1308.32
1263.30
909.80
1198.86
1235.40
928.22
658.37
519.94
399.43
868.54
456.67
586.88
831.34
978.71
742.86
735.38
806.14
971.05
1069.09
983.01
1076.98
919.78
1077.51
930.13
629.91
678.52
447.96
857.48
1338.08
1207.48
954.59
822.63
764.62
837.25
701.26
1079.04
947.62
963.03
636.38
802.87
533.40
323.38
709.37
449.56
326.19
911.66
864.88
932.79
915.63
802.17
992.69
994.52
831.76
2125.44
898.25
789.20
619.77
889.91
1291.36
2003.92
2573.48
2194.04
1969.52
1228.12
2919.45
991.63
1002.69
1088.45
1054.19
1032.01
1302.44
1024.66
526.35
1015.64
1610.29
3056.19
487.19
541.06
802.98
883.66
774.75
679.85
882.92
1172.27
1218.10
1246.72
1698.77
1086.07
714.28
394.54
378.09
850.53
1034.51
436.79
492.32
788.52
973.94
1102.10
493.78
957.74
912.06
1137.73
1097.55
897.03
768.40
217.51
356.96
404.64
587.52
392.86
638.67
482.06
783.71
933.56
876.16
708.91
862.73
1063.65
850.09
680.32
1411.45
659.21
545.17
682.09
570.48
654.72
517.81
299.64
1092.87
1635.47
1639.07
1564.52
1336.08
1448.55
1410.18
1519.83
1291.35
1265.84
419.36
638.29
1322.33
1346.42
1671.23
1808.68
1147.88
928.01
837.64
1156.39
1165.50
1340.05
1524.76
901.73
878.04
918.82
799.19
233.97
289.49
308.74
376.13
357.49
372.13
1063.49
1750.44
1403.39
1150.17
675.66
1033.97
1178.48
1137.79
1205.57
1152.56
458.19
592.90
662.63
722.47
383.56
538.54
650.24
943.13
1300.98
1327.05
1148.31
1021.98
1689.83
1667.40
1249.03
1291.55
2588.39
1040.51
560.58
469.15
892.40
846.02
824.50
675.94
1183.18
1171.08
1181.34
2534.12
942.21
1038.77
907.14
1133.35
1630.35
1175.06
782.92
809.32
583.80
283.94
967.44
444.85
1068.02
890.35
956.31
779.87
873.85
781.23
1115.42
952.89
1034.47
760.85
553.27
848.05
848.45
726.25
696.50
921.39
678.45
921.04
1360.39
1386.85
892.59
753.09
863.66
951.62
1016.25
882.91
1580.27
1586.32
1542.13
816.18
617.29
631.84
646.47
355.60
1097.68
1426.37
1516.69
936.95
1216.22
1013.01
1119.56
1000.02
1193.33
753.32
516.25
903.54
869.04
739.85
735.15
906.85
880.69
968.71
1105.58
1512.08
1900.98
1895.51
1520.21
1350.72
1290.27
1366.96
1371.59
949.72
441.74
436.47
460.38
463.13
433.14
978.28
859.25
1023.07
1066.54
988.57
1295.33
1621.09
867.31
1011.80
1632.95
1727.98
1213.19
459.14
521.27
413.59
630.74
748.26
1379.74
1412.24
1360.42
1253.75
1126.33
1133.31
915.19
952.09
1096.40
931.47
466.12
689.57
470.75
401.27
524.62
364.74
555.31
708.98
912.27
793.79
817.25
907.38
766.23
904.19
1007.30
1560.36
1062.98
1431.94
1650.58
1742.71
1495.55
792.93
555.57
765.49
1033.25
845.18
1591.60
798.57
936.00
1021.83
901.85
1031.38
980.72
641.39
370.40
495.44
596.25
1392.04
607.50
551.37
920.01
864.22
941.95
929.00
1078.46
798.86
975.25
937.69
2150.49
783.01
290.99
442.50
668.55
647.85
634.88
696.88
1141.71
1352.68
1271.88
2641.68
849.46
992.29
1216.89
958.57
882.52
856.57
574.37
355.53
424.32
317.61
865.69
1367.38
1916.09
1771.22
1498.92
963.85
2060.34
2917.34
2683.08
1459.49
814.84
1099.12
1042.92
741.21
560.75
529.96
822.30
1083.10
484.10
626.26
1296.55
1245.85
1528.74
1421.23
918.74
1075.37
1007.49
912.02
999.98
958.88
608.04
375.95
459.71
632.44
386.53
441.40
933.24
1160.06
1001.93
1502.63
1292.79
1062.38
1283.53
1259.40
1311.47
1412.53
1045.39
1184.69
1191.42
727.92
191.99
1084.85
1243.24
1691.96
1767.97
1608.15
1445.36
989.06
747.10
844.84
870.62
850.91
930.72
357.38
502.61
313.35
449.36
1344.98
235.99
260.86
810.08
882.83
1040.83
701.52
876.26
1116.00
1041.80
1017.78
919.04
883.40
593.81
666.26
1031.02
1358.73
1245.41
908.19
666.44
981.89
934.42
956.99
799.02
1019.02
833.04
1205.09
946.29
886.22
454.61
357.34
371.85
375.41
501.33
669.65
842.22
1039.01
1120.15
1091.90
772.33
898.95
964.29
1061.01
1066.21
1115.35
1584.68
470.56
519.22
344.15
582.79
829.67
896.31
646.07
1271.71
1463.71
1279.49
2194.98
872.81
1341.36
1101.07
1498.97
1982.64
1232.07
1013.89
794.07
322.55
792.94
2702.15
1820.27
1825.25
2129.87
1133.60
970.07
867.22
778.44
969.52
1052.57
1008.23
1560.12
624.88
786.25
643.36
356.07
662.11
944.88
1159.46
1097.01
1477.59
1412.30
1047.92
1011.51
987.22
1141.44
906.40
1008.40
956.33
483.43
497.72
355.40
514.80
291.83
533.71
362.82
830.94
821.41
953.56
817.80
810.09
825.11
827.38
787.56
960.31
818.70
378.23
105.19
470.05
1340.31
1515.60
1063.97
1097.37
1458.50
1336.66
1108.49
1387.27
1156.72
1028.06
1288.37
1198.65
1069.15
631.58
498.41
490.92
500.18
307.78
1396.72
630.56
1048.07
953.59
1091.18
855.60
597.62
870.85
973.58
810.41
957.53
1047.46
803.79
785.10
684.22
399.15
772.33
1019.16
1053.82
1366.28
1164.64
1073.45
808.78
968.23
1116.18
1173.52
942.35
1266.10
1085.05
328.59
258.87
613.04
437.79
407.72
705.36
534.99
830.99
799.90
863.96
990.87
1592.29
1469.17
833.59
871.98
1147.84
1477.89
635.80
446.68
520.43
640.85
651.09
1119.58
1607.16
1948.74
2205.43
1823.58
1578.76
1601.94
1123.67
1081.39
785.50
897.41
462.15
677.64
117.34
373.90
705.28
602.78
651.65
922.18
935.65
816.52
646.83
1035.39
880.02
814.66
910.77
1013.80
695.92
943.46
580.37
460.47
740.51
862.25
1008.62
1022.33
1587.35
1410.38
1137.01
877.96
1357.16
1119.40
1019.58
1027.21
1051.64
1006.72
1260.18
1404.04
817.09
394.35
1624.76
2625.61
1667.29
1619.97
1302.09
1223.25
892.01
797.84
1030.26
887.53
877.09
1047.82
1378.44
1200.16
1189.73
1764.12
1762.67
932.01
444.23
873.76
869.39
914.09
641.05
1406.01
919.45
982.30
894.08
1018.56
962.16
365.16
470.72
275.51
270.14
399.99
1416.60
937.57
723.83
892.60
863.70
930.47
963.92
1067.50
917.79
1282.62
1227.28
1912.90
377.90
735.99
777.46
518.20
280.64
706.87
1150.54
1140.60
1070.31
966.09
2208.15
1063.93
1545.86
1359.93
1357.12
959.91
419.28
716.27
854.38
679.05
406.52
1840.23
727.99
1052.16
1042.86
975.74
811.56
990.24
902.41
945.04
929.36
806.01
2503.72
482.73
412.19
537.44
831.31
794.58
856.11
853.46
1057.55
1089.37
915.58
955.66
947.80
988.54
1130.88
1077.92
843.43
482.58
562.73
597.61
546.77
744.13
626.88
773.13
727.37
873.38
991.62
1035.63
967.74
1180.52
955.84
1061.48
900.06
840.24
586.39
755.33
533.41
760.83
917.24
1059.00
778.58
1268.87
1113.31
851.29
592.00
843.21
1104.48
898.22
945.28
969.23
842.47
477.49
810.33
845.03
705.50
464.92
405.62
792.34
1252.16
1357.96
1266.54
1032.05
1089.13
1068.51
1027.23
1136.82
1276.98
733.50
1021.02
1127.90
1241.50
1316.77
1093.79
1118.38
1196.80
999.53
839.60
743.64
1070.10
919.99
984.11
1021.12
784.76
880.67
559.20
383.61
425.65
352.64
886.41
1024.55
990.59
1400.26
1375.77
1003.95
737.14
939.66
843.14
1139.20
816.47
1180.81
1100.41
852.81
717.71
1064.96
1052.44
1042.68
1042.75
979.44
1182.19
1153.22
930.33
766.97
869.33
1132.90
1369.10
2057.70
1741.29
860.69
388.10
1343.74
2182.57
2167.48
2037.76
1526.10
1007.11
996.17
738.60
967.58
778.00
826.33
992.18
946.24
774.06
1420.58
962.09
1116.68
1087.51
1003.39
909.03
848.70
472.04
1100.03
1008.77
1055.17
855.65
769.82
1060.54
1093.60
1201.44
1396.92
861.67
627.86
441.36
293.82
497.28
1134.40
383.43
549.25
831.29
991.83
832.88
707.92
761.08
1098.65
1023.55
1169.77
1140.93
723.15
614.59
461.14
425.29
479.56
298.56
471.18
635.34
935.95
929.91
1275.24
672.36
1148.11
1017.49
1101.45
1025.47
1147.47
636.31
470.50
344.46
532.04
902.75
631.98
544.25
1018.17
1025.89
948.52
700.71
1154.96
1018.03
988.74
1039.16
1286.00
780.01
475.12
472.59
568.64
582.45
862.63
828.40
834.73
1147.66
1279.76
1582.19
892.14
1112.80
1052.75
948.68
1217.75
855.14
576.79
657.04
398.93
339.61
1281.62
488.92
484.01
745.60
930.15
1031.76
824.62
1005.96
987.77
776.99
1050.85
1978.45
1216.70
545.44
408.63
417.71
534.74
614.64
785.02
958.01
1735.21
2178.29
2387.07
1985.83
1325.45
850.99
1040.60
1141.36
1234.69
868.05
458.07
193.37
443.86
298.70
553.36
371.32
735.92
1185.67
1048.45
805.39
880.66
998.16
963.85
884.47
754.76
2313.50
691.33
903.90
1168.66
1146.80
857.23
612.48
592.17
804.91
686.15
891.99
2935.70
728.39
868.57
886.22
1162.18
1256.13
1269.66
897.13
928.77
746.03
447.98
2147.33
538.80
456.99
842.29
1426.45
1036.45
792.12
794.02
994.42
838.69
1038.16
1368.17
773.53
461.77
432.64
445.33
408.35
569.34
794.74
1101.80
1144.95
1242.05
1086.50
882.56
861.67
1004.85
1150.21
1017.03
1029.86
419.56
430.76
215.25
501.33
596.50
833.55
509.50
912.74
882.73
1123.35
824.28
684.61
932.04
965.49
914.80
911.61
2977.35
471.12
768.43
770.72
782.09
908.38
902.63
778.86
1357.50
1177.19
1205.08
2211.85
1176.95
1097.99
1408.10
1422.51
1073.43
688.35
879.16
676.91
94.92
242.19
1978.69
413.33
560.42
936.22
797.13
918.30
979.85
810.43
871.52
1121.38
933.84
937.41
529.65
467.30
450.79
442.65
455.59
657.52
601.59
946.95
1346.14
1288.40
1288.19
1544.14
1301.96
933.70
1090.63
1445.01
1093.95
372.99
385.15
406.18
570.77
469.65
1507.58
790.41
969.92
853.93
1080.42
971.15
1325.91
952.32
1040.34
874.75
1129.14
2346.40
508.57
412.66
559.04
810.77
1014.91
801.16
481.17
924.37
1329.98
1127.52
1005.34
922.46
801.32
898.47
1218.92
1047.21
973.64
639.35
660.13
537.01
405.78
815.57
732.38
794.90
1091.82
1112.53
878.07
683.81
896.65
874.61
788.73
1051.16
910.85
843.19
1062.24
992.94
899.52
593.93
288.26
571.73
1313.41
1941.03
2029.44
1917.86
1872.22
1292.91
1174.56
972.72
1259.57
973.60
565.13
455.81
930.07
962.78
513.93
697.68
1890.99
1962.62
1563.87
997.28
850.28
970.60
940.71
966.00
1223.79
977.19
1112.96
1555.26
1842.20
1552.71
1406.56
999.04
1068.51
1243.04
1184.88
947.44
667.13
771.74
946.23
1407.91
1633.42
1151.97
1088.69
565.63
347.08
425.76
645.91
464.97
664.71
470.08
795.86
793.34
774.90
593.68
894.35
849.72
826.39
836.84
1028.36
1025.14
422.30
620.01
656.85
563.62
589.24
622.79
769.88
1116.21
1077.26
1032.44
2519.62
1155.60
1313.54
1097.70
1143.07
1028.04
518.56
408.13
727.58
233.26
345.52
335.71
508.28
693.05
792.41
984.32
825.70
784.90
1040.83
883.22
1005.70
871.20
926.91
1355.37
594.59
560.39
290.85
398.30
638.38
796.93
1328.58
1414.43
1016.73
662.55
696.36
836.12
799.11
1124.71
991.11
859.61
680.05
586.77
700.54
507.42
820.73
874.60
1209.48
988.04
1046.65
1116.67
1199.71
1277.66
1205.08
1018.88
961.62
1183.16
981.66
659.84
422.26
353.93
513.15
349.91
466.49
1092.15
1065.68
1232.66
984.65
856.66
1517.96
1081.70
975.46
1185.22
954.28
580.49
484.67
522.32
425.87
482.48
569.85
2110.91
855.59
990.39
738.36
812.49
1190.93
817.01
897.96
1200.10
1100.03
860.48
143.41
634.23
1372.60
2011.72
2336.67
1791.14
1669.36
1929.45
1798.75
801.86
911.77
2080.86
2235.72
2232.21
1527.31
1041.70
735.43
511.20
488.95
400.25
453.34
643.66
555.32
1026.03
863.78
1138.22
659.64
833.50
1011.39
878.21
905.78
942.49
1014.11
620.98
1387.17
1232.94
1205.82
1115.11
766.54
628.61
1104.45
1041.30
993.62
735.80
914.53
1287.57
1104.52
1019.06
1080.99
1116.37
392.96
286.63
361.85
474.09
386.48
648.13
1878.15
1220.51
955.59
881.00
879.02
907.64
978.54
959.04
939.23
944.89
662.10
1679.96
1040.48
640.84
374.16
620.58
550.80
956.64
1211.71
1169.31
1045.38
1000.92
1222.03
1014.79
914.53
1069.53
1067.76
600.87
515.21
580.18
422.23
426.43
366.82
527.32
1495.17
822.80
951.96
915.84
843.52
899.37
1031.08
1153.30
1040.63
836.57
379.38
1393.26
554.35
761.57
865.53
807.05
856.37
1012.12
1216.87
1289.68
1310.92
1471.25
2031.89
1413.92
1297.86
1063.47
870.61
602.04
647.01
640.60
539.47
392.84
250.21
793.45
871.81
729.60
863.66
809.95
1058.08
1290.60
953.20
1017.35
741.50
725.20
348.77
625.03
410.29
815.36
1265.32
1190.22
1247.01
923.57
1058.11
814.65
774.37
1112.38
1413.57
1110.39
1066.30
966.00
746.10
687.61
705.07
463.65
649.99
766.42
891.13
1388.70
725.00
877.17
702.87
964.08
1135.24
1145.65
1208.52
1350.77
930.92
796.46
1001.81
643.35
788.85
602.20
468.63
897.23
823.19
845.96
896.66
801.80
962.88
1173.04
893.23
1175.16
1172.04
342.38
610.32
431.91
371.76
431.34
1046.44
1502.89
2037.51
1333.36
961.31
862.34
995.07
1145.23
1137.02
787.45
818.33
919.80
598.33
735.32
968.93
902.85
1050.31
802.89
950.39
1232.78
1030.78
775.72
974.95
1066.52
1437.90
1141.33
1215.56
1243.99
978.37
655.60
656.78
567.39
457.49
402.84
715.79
1340.17
1479.30
925.52
888.07
824.16
993.27
811.44
1134.34
777.48
936.95
527.50
581.72
368.38
441.55
540.74
625.29
370.39
1007.55
909.27
1101.66
519.73
988.55
1227.49
1676.60
1782.36
1581.72
1120.36
768.27
622.79
366.36
544.10
837.42
634.84
516.12
1509.66
1028.32
771.20
781.81
838.26
974.36
855.26
900.56
1023.56
671.02
952.72
2244.27
542.80
592.87
707.25
988.29
1341.06
1871.59
1946.89
1420.84
1737.10
1632.93
1323.86
985.82
841.54
909.49
342.43
392.94
412.21
429.58
523.90
530.75
408.16
873.11
1249.62
928.94
717.78
856.97
996.77
846.62
906.45
985.20
929.02
526.01
473.67
1275.22
823.87
491.69
498.37
345.11
1007.09
954.56
993.84
897.75
1124.85
1016.55
2112.08
1094.54
1091.68
742.88
455.50
700.69
504.29
565.91
433.25
527.35
980.58
845.06
1107.35
849.10
555.34
851.22
1040.61
1170.69
917.81
854.30
687.87
1213.73
897.91
1156.93
1179.20
1198.29
1103.76
1302.25
935.01
922.77
1243.38
905.23
786.72
1063.57
1038.28
1133.64
1182.93
729.80
325.99
626.20
553.65
836.71
785.76
616.14
1304.24
1452.94
1028.14
916.82
963.06
996.82
747.07
965.15
1174.83
1250.20
1107.06
498.44
912.78
336.01
319.84
594.68
844.71
831.64
917.30
1290.36
1254.77
1156.76
1115.16
1526.41
953.27
1037.44
243.94
283.27
343.07
602.62
580.03
505.12
643.46
929.82
807.87
983.23
949.16
961.59
944.00
841.94
723.04
930.27
1013.12
538.54
478.80
489.22
713.52
625.93
925.77
754.01
995.26
1123.79
1396.80
994.02
836.59
987.34
1080.82
1249.93
649.29
688.01
411.33
408.01
416.64
368.11
486.12
490.08
902.15
939.53
881.73
975.29
782.83
918.22
721.03
986.52
1054.66
793.89
532.56
689.75
631.81
640.82
979.11
700.31
944.97
1231.91
1340.05
1426.09
977.83
1076.62
933.25
843.59
932.17
938.09
840.33
563.07
562.15
453.11
254.59
453.57
278.79
740.96
745.56
1039.77
2279.19
856.18
856.57
1127.99
987.20
982.57
927.16
387.05
156.03
478.47
807.81
1687.35
897.32
945.42
1279.67
1450.90
1429.29
1110.33
939.26
1330.10
992.88
1105.65
1488.37
1490.33
1794.47
1575.69
768.65
1004.66
1381.58
1439.94
1965.84
2755.64
2110.31
1234.81
954.33
1035.42
990.88
829.17
1007.32
857.59
927.14
447.76
582.44
547.88
766.03
978.28
827.38
1139.34
1406.69
1045.55
933.30
689.02
606.84
1067.41
1125.87
1283.08
1216.43
492.15
320.16
355.79
540.68
851.21
856.25
711.64
691.46
1360.72
1835.94
1595.71
1156.53
895.56
938.36
900.69
936.44
923.37
587.12
474.20
608.91
1027.12
1258.21
1240.72
1366.53
1859.13
1375.15
1242.89
806.09
630.80
977.44
1032.84
696.47
1123.21
1007.46
430.10
221.73
655.76
436.89
400.66
578.63
483.62
1017.86
875.47
1359.86
843.65
914.61
925.46
1025.13
1111.16
1046.29
738.63
682.54
534.36
549.65
1432.78
703.74
512.88
795.71
925.90
1103.42
1044.36
892.04
1156.11
1042.88
1014.62
946.58
961.05
433.62
522.08
481.69
379.19
268.43
455.74
529.66
791.23
797.25
792.69
2246.56
892.04
1001.87
827.74
1022.14
978.21
943.24
305.68
400.97
431.56
749.95
1570.16
688.88
552.99
1199.00
1266.13
1100.64
860.13
1084.94
950.84
1077.60
771.30
1083.68
642.29
320.42
682.33
614.28
501.53
527.95
616.09
680.92
829.15
740.96
782.31
2034.49
984.27
1044.82
882.55
994.66
865.32
474.60
701.40
708.22
886.13
892.34
2397.24
964.52
1177.11
1064.15
1009.49
727.16
566.62
982.15
801.46
875.57
845.86
2061.37
452.56
422.01
405.39
570.87
520.59
602.43
834.15
915.87
855.33
1295.48
1013.08
1031.54
995.56
761.95
904.66
1014.00
575.54
523.83
1143.62
928.54
611.25
478.30
1270.17
1067.38
1078.54
931.38
801.63
906.47
1172.76
1088.11
1017.82
904.16
923.53
1653.41
742.49
338.08
674.58
832.54
518.32
696.85
1055.19
832.46
807.19
737.72
917.78
790.33
884.94
939.51
929.35
897.10
622.05
754.70
660.32
647.83
562.25
370.96
605.36
776.29
729.90
850.26
786.31
1401.91
1437.25
1207.84
1067.88
792.69
645.21
1191.95
778.68
917.94
897.81
520.82
525.70
667.82
1036.16
1277.95
1239.40
836.65
2047.93
874.29
799.50
763.17
1053.83
475.47
303.12
502.29
471.49
629.30
701.54
860.97
1686.94
1445.46
1507.89
932.57
970.85
784.62
880.12
856.69
1119.08
816.63
606.91
589.99
1021.06
524.84
502.42
393.08
639.11
918.98
995.74
944.44
793.67
966.71
1348.54
911.74
1158.07
1128.03
595.76
513.66
428.53
369.76
286.01
534.14
666.71
805.65
904.30
745.48
779.59
1031.31
811.22
894.28
1058.77
1213.46
1370.52
865.18
649.88
451.72
340.56
341.50
537.69
391.12
990.37
675.70
866.46
786.55
646.48
873.26
1507.95
1004.59
1047.07
912.39
365.57
491.89
397.90
632.06
768.69
433.84
823.25
1119.04
1432.82
1590.34
1307.45
1006.85
1017.37
951.87
965.11
1077.06
798.94
342.33
618.29
504.77
396.80
464.51
306.00
849.60
715.17
741.85
787.16
522.58
725.64
904.10
2304.60
790.87
977.52
1035.39
801.91
932.62
881.58
833.44
1013.08
661.16
951.04
2077.59
1017.29
756.87
824.10
915.03
720.80
810.68
1007.75
1023.34
612.73
373.12
2296.45
421.03
529.93
346.50
359.35
860.12
1023.43
698.24
710.25
865.13
726.75
833.65
810.02
750.21
806.31
320.37
513.97
563.15
634.31
810.90
964.51
1017.47
1033.70
1374.93
1276.03
1142.82
1257.89
905.02
982.27
721.91
921.15
232.14
293.16
113.54
952.08
437.21
344.85
376.27
926.74
899.52
842.35
610.69
746.41
713.74
1144.19
1777.14
1184.05
1030.58
649.14
548.72
451.98
519.00
355.75
241.52
254.71
1004.36
1332.15
1324.91
980.52
824.06
1195.37
1134.69
935.31
955.52
482.79
398.87
401.99
799.37
1575.86
347.63
746.33
881.87
1073.92
1250.75
1180.34
1052.29
898.46
1050.53
977.33
1218.09
1172.66
663.06
375.70
224.87
430.96
461.57
521.33
711.79
1373.50
1254.65
1143.49
1069.82
903.18
975.83
1054.41
989.94
1139.28
1126.89
839.89
475.70
427.71
518.27
1018.66
356.15
309.35
833.95
956.84
810.85
758.51
954.44
1050.18
978.94
1090.97
2297.21
1013.50
450.34
727.97
469.48
454.58
577.40
782.91
995.83
1598.10
1733.69
1307.63
752.96
886.30
714.15
816.20
752.12
1187.78
1079.42
1282.31
1358.50
1055.90
265.24
843.16
1355.30
1804.84
2197.78
2406.91
1736.81
1182.07
778.98
1210.97
1287.34
1105.61
1007.02
631.78
322.54
535.25
396.32
430.38
366.67
825.96
1043.94
1016.25
1239.44
1409.04
1182.31
1090.97
914.28
961.22
1056.22
660.69
425.24
558.24
512.21
496.64
1303.82
363.59
981.46
1010.20
1097.17
978.16
751.06
1132.40
1059.21
1169.07
1198.02
1200.86
743.81
820.68
666.44
406.81
521.32
507.51
684.10
1053.25
1040.49
1223.07
889.19
1073.00
1482.67
1702.29
1292.99
1131.63
1089.23
486.42
228.50
367.95
315.91
259.43
1070.24
649.32
715.40
871.30
852.89
810.00
775.74
877.02
850.82
975.40
803.95
2437.87
470.28
345.92
649.50
448.50
374.79
481.01
609.25
1132.93
1000.15
1300.32
920.76
1270.40
969.78
920.83
935.39
1166.11
677.81
545.23
495.78
397.01
499.54
590.40
2428.21
828.10
835.70
747.25
829.70
778.05
602.89
862.74
752.04
1007.81
997.88
1427.18
1845.68
2012.25
2159.29
1800.89
707.84
216.26
1075.74
936.93
700.27
846.89
755.01
1208.65
691.35
851.80
934.17
1000.97
678.44
917.02
298.90
909.08
1403.60
1196.13
965.91
886.77
1098.08
917.29
837.22
681.79
962.13
906.05
978.16
1019.08
598.92
817.58
795.81
1102.55
849.54
1053.36
805.59
1085.56
1158.07
1238.21
1352.30
1378.94
1328.13
844.29
837.86
1032.41
981.77
716.81
1216.90
1008.50
258.90
507.67
306.63
416.98
802.28
888.35
829.86
944.82
758.18
895.22
976.25
1079.94
1118.97
916.10
1345.95
1178.45
883.42
514.28
250.76
636.06
600.94
1145.13
1114.62
1086.01
670.61
1124.44
1066.30
1007.82
1125.45
1054.93
706.36
1010.14
1003.69
1007.62
640.90
345.79
446.67
928.26
1036.52
986.77
713.92
920.88
1075.06
1090.59
825.33
919.45
1166.13
1583.71
1956.44
2483.90
2001.46
1374.07
386.11
905.61
909.43
1035.65
1005.16
981.11
918.70
1057.03
942.20
986.43
875.45
870.62
567.53
474.47
438.76
467.99
382.57
1045.20
539.91
937.85
1111.50
1911.27
1963.62
1534.44
947.60
1009.58
1725.26
2344.00
2849.90
1715.86
1115.72
540.30
770.66
849.31
1404.91
1766.47
1463.38
1646.53
1750.74
2057.98
1893.34
1830.80
1810.53
1321.90
996.08
602.24
745.74
810.92
730.81
679.13
923.73
1145.51
1417.84
1266.08
922.93
740.16
1839.52
2914.76
2850.51
2344.62
1264.57
1462.70
395.52
902.07
1322.24
1786.03
1471.51
995.47
1131.35
1083.63
1052.28
1280.68
1649.15
1599.66
1833.44
1822.50
1758.83
1383.09
428.58
994.45
1882.09
2497.62
1568.96
2340.09
960.23
1212.79
1118.21
821.76
941.00
992.87
853.80
1151.89
1501.37
1464.62
2156.60
699.59
696.30
633.24
402.81
475.95
879.63
774.45
1006.94
864.96
1250.77
2146.83
1394.38
1311.37
1197.44
1073.37
975.88
488.17
349.49
548.68
307.66
387.81
2374.57
584.15
853.90
762.86
1052.69
897.96
849.34
900.15
985.56
1164.33
890.33
1701.24
667.25
652.42
134.76
585.74
969.67
1037.15
769.25
1117.71
1290.17
1076.69
973.37
946.32
1209.57
964.45
983.57
997.38
1212.14
809.15
682.74
623.34
588.05
436.87
496.27
261.87
1003.61
986.26
1143.53
810.12
695.14
733.15
1102.77
1631.45
1527.11
870.93
608.84
793.25
669.82
406.49
522.30
413.93
809.86
1002.45
984.57
915.71
998.64
1206.59
971.30
1340.67
1319.34
1358.03
578.60
315.67
325.02
449.49
677.56
1070.12
1148.99
1283.47
842.46
983.88
1019.62
1313.54
1182.64
1089.87
1127.25
962.61
984.85
401.26
458.93
687.48
712.71
384.18
547.94
400.64
1089.04
878.85
1454.93
1502.87
1980.80
2547.03
2835.71
2542.90
1815.03
802.68
777.04
1405.33
1258.75
1525.62
1444.38
848.01
940.67
886.81
1069.12
692.69
1008.44
926.19
970.48
853.94
918.95
832.31
450.70
603.18
686.89
874.28
953.27
1435.61
1208.23
1880.39
2484.38
2880.58
2764.41
2956.00
2208.76
1071.56
1792.39
2459.89
2842.44
2588.43
1692.93
2243.18
1731.59
378.36
622.23
779.15
1117.24
727.88
772.28
1001.72
1084.08
766.71
1033.40
865.23
1202.30
871.87
562.18
496.10
387.98
330.07
561.89
652.13
842.11
1325.99
1272.55
1460.89
1296.52
1426.23
932.84
936.08
1135.74
1188.01
405.04
298.00
330.65
366.00
748.45
469.12
423.16
1039.43
991.47
886.77
1096.79
943.24
1159.42
1273.14
1328.73
1594.84
929.93
418.88
258.69
412.44
584.31
776.97
665.25
840.83
1150.23
949.96
1191.46
943.17
1237.70
1196.97
1028.00
926.62
946.12
1038.38
672.08
796.81
483.09
1116.88
564.01
489.12
863.63
1355.81
1293.97
956.14
796.91
983.69
1177.13
1141.24
1301.42
928.65
427.81
509.14
457.81
463.02
560.20
384.20
428.99
984.41
1061.65
1224.86
984.73
1077.68
1074.73
945.37
990.12
1060.24
1109.13
410.11
386.41
234.03
320.79
795.83
312.57
715.17
751.74
1188.32
955.29
857.20
892.18
935.84
1008.25
1314.47
1068.51
1070.99
389.71
486.94
448.30
622.46
511.41
678.90
1118.25
1427.86
2109.46
2004.71
1806.16
1757.00
1257.15
1330.85
913.68
1087.03
535.64
437.37
560.58
329.37
421.82
1390.33
400.84
848.74
771.22
878.48
909.33
1483.63
1201.89
824.81
880.24
1517.07
1486.75
1191.93
565.23
428.47
114.11
544.06
558.47
488.26
1086.79
971.95
1111.03
978.51
1184.28
1145.25
959.92
1179.02
1105.62
916.09
612.80
633.24
1054.14
1121.94
721.79
1172.16
816.81
1110.95
1868.06
1951.23
1129.96
929.86
906.49
1061.93
1283.27
872.72
1101.15
799.16
572.73
577.52
204.60
355.53
454.15
1040.54
1244.31
1269.95
1045.34
2177.15
1464.97
1426.79
880.25
797.26
950.15
544.43
442.97
399.67
425.16
444.72
662.11
666.20
829.16
802.34
936.78
925.18
949.08
926.61
1020.81
993.24
1076.77
866.86
1007.03
925.03
699.73
1013.35
909.36
833.35
1239.37
1296.23
1121.95
1545.12
1850.42
2403.34
2398.28
1618.53
931.85
906.50
796.33
1172.68
969.96
1073.92
823.53
416.76
898.18
919.49
1017.34
1070.15
933.94
1074.38
906.09
1291.89
1077.04
1003.72
869.35
1473.48
599.18
583.83
250.67
518.51
415.07
791.60
1551.32
1461.50
1374.88
1134.73
1697.94
1196.21
958.10
961.14
1003.08
1003.55
429.69
449.40
344.53
276.46
323.54
1521.22
1207.45
907.06
798.17
937.65
745.46
1103.18
981.63
1247.49
1008.05
1080.66
1894.48
911.37
885.59
787.37
506.36
705.08
606.83
1082.79
1058.34
1054.19
932.90
2738.96
795.39
1037.62
762.20
1082.14
965.57
516.03
330.32
334.08
564.69
397.57
2368.56
622.28
926.26
930.86
829.97
943.74
762.44
1035.25
1284.33
1344.96
1019.86
2808.32
748.11
789.66
525.12
281.96
164.16
354.57
1301.30
1800.08
1814.03
1640.24
1156.38
814.74
928.18
922.12
1093.02
865.15
736.74
336.50
368.09
493.55
535.65
740.76
466.94
838.89
751.49
912.03
917.03
961.43
1271.17
1000.37
885.17
761.04
774.02
1269.42
244.59
491.25
314.20
948.55
1213.87
1083.38
1368.34
896.20
852.78
923.21
1988.00
850.08
964.53
892.49
856.50
1095.54
558.09
845.30
859.35
795.62
822.25
1802.82
1026.90
951.94
1053.98
954.87
894.72
767.62
919.17
1046.51
1063.46
1106.46
2147.77
671.10
601.01
804.70
593.70
434.61
297.09
863.55
1036.17
1085.73
1113.05
2523.05
1017.73
968.98
917.60
1043.37
1025.22
547.28
661.21
900.39
768.81
512.04
953.30
1011.79
2146.16
1890.04
1141.25
714.41
849.30
927.63
994.95
902.37
908.66
1008.86
263.36
479.80
704.57
991.50
1231.58
1692.27
2065.58
2064.73
2389.52
2257.17
1766.16
2204.08
2318.65
1681.36
716.32
1438.98
2089.20
2373.40
2327.43
2038.22
1841.97
1493.89
1483.92
1284.53
935.65
1086.13
938.79
956.75
979.45
1077.69
1131.22
1256.53
975.36
742.42
820.61
900.26
929.74
604.32
906.80
1143.24
1299.25
1464.08
1217.03
791.68
1048.69
1123.87
857.72
991.47
1041.65
966.38
504.10
751.02
577.60
325.14
304.98
297.84
872.87
1064.81
1118.78
1057.25
898.19
1081.98
1099.80
1010.27
1414.71
1518.37
1022.30
842.11
380.19
916.47
1330.54
1210.63
830.86
932.88
981.01
1087.94
1025.61
1273.67
1189.33
1449.70
1071.88
1280.86
1270.00
541.87
583.49
364.95
545.11
176.66
378.91
725.55
799.64
1026.50
1103.73
1020.51
1018.95
1048.51
1184.33
1222.57
895.21
836.02
742.72
1154.79
1175.32
1207.57
1203.34
1045.61
1024.48
1200.20
1607.85
1561.48
1066.41
1439.69
809.67
1096.15
976.99
1138.13
855.95
530.77
538.80
1273.53
1223.80
1324.54
937.32
973.16
926.61
952.31
959.15
981.72
1040.40
969.59
695.51
848.26
1481.27
509.20
290.84
576.51
867.34
869.56
1563.25
1805.41
1771.80
1334.63
959.63
1006.07
910.02
836.65
944.63
874.00
1133.95
978.73
691.96
669.19
617.34
704.82
996.47
592.83
1140.77
983.65
975.05
922.79
923.11
734.00
1066.47
990.54
969.20
1695.62
488.70
595.69
565.43
710.66
903.52
1033.66
786.54
1145.48
971.56
1026.56
1306.76
1085.18
901.61
1153.31
845.38
888.83
1106.38
1020.74
810.63
668.29
630.58
1281.98
358.41
457.76
783.62
987.17
942.10
766.79
773.38
893.95
1234.56
1201.08
1827.53
1220.93
631.52
959.22
1251.27
981.88
705.59
425.42
786.80
1627.27
1556.58
2032.50
1157.97
1077.45
904.42
893.44
1014.97
987.43
807.12
500.73
391.03
250.49
1623.14
323.86
601.53
1079.43
1077.88
1037.02
816.65
1062.37
767.63
989.27
792.08
2469.50
854.67
677.67
973.07
789.92
636.66
708.62
505.40
343.24
1049.05
1147.69
2283.08
962.97
1080.97
1101.41
1166.70
989.06
1066.38
1239.88
523.89
482.39
548.45
2381.79
347.12
269.61
1063.08
1067.24
1059.52
1098.19
1013.99
971.28
917.90
1137.35
1625.56
937.87
389.64
308.64
479.93
568.73
1308.90
1367.99
1291.44
1768.97
1547.93
1724.64
1001.69
754.41
1079.22
791.44
705.27
1018.61
769.88
500.53
439.19
710.44
826.47
638.20
538.28
411.48
910.04
1079.01
954.55
892.72
672.03
1128.72
1367.62
1139.23
996.74
1124.16
424.08
284.50
199.81
553.93
603.74
702.14
1561.00
2396.42
2095.87
1375.90
960.77
1004.71
892.72
938.00
922.54
1071.58
668.06
291.77
732.53
255.73
295.03
666.49
480.04
935.50
928.65
1043.92
961.96
923.87
999.19
896.97
1019.86
1131.91
988.91
1004.85
1034.11
911.69
465.29
436.95
495.33
700.53
1213.68
1349.72
1136.60
856.24
717.17
1089.25
928.67
984.72
1034.39
1134.82
582.25
673.01
644.74
882.40
836.54
420.22
819.64
1085.79
1102.38
1075.10
1004.37
877.41
1083.94
1075.25
1128.72
1110.61
567.47
369.34
322.74
618.00
226.28
415.39
603.80
1872.26
2150.63
2327.62
1965.23
1440.23
1011.11
1126.81
1432.51
1641.25
1380.31
681.67
464.27
726.94
816.35
756.53
241.18
421.20
767.29
982.81
1031.23
715.15
978.69
1011.88
792.05
1564.49
898.66
900.44
448.41
482.55
559.38
843.88
792.49
684.88
1473.66
1844.38
1898.40
1245.07
896.73
1052.27
986.99
1186.56
998.29
1052.27
420.73
505.68
645.45
1433.22
288.34
419.23
411.47
1032.58
944.06
1048.11
1044.24
1013.88
906.80
1070.12
1100.33
1367.40
1246.26
1258.31
1415.74
548.68
694.82
860.49
669.53
579.35
867.22
1095.81
1014.79
1082.50
802.25
1079.28
891.29
898.56
1182.68
1125.87
625.08
682.10
326.88
372.37
571.22
469.38
853.66
952.47
836.19
750.06
1226.39
1556.42
1363.36
1094.15
1436.54
1063.20
606.67
509.53
524.56
508.23
521.63
742.07
658.74
1175.85
1161.50
1177.29
1466.97
1300.77
1328.73
1489.85
987.17
1390.98
890.12
573.26
545.41
356.02
476.07
417.04
518.26
517.46
1096.87
949.00
1207.74
1139.83
983.08
999.89
911.68
1068.18
2070.00
1204.76
788.06
1010.55
1148.91
884.07
824.88
503.74
748.64
1187.42
912.95
2365.93
780.15
1017.64
1071.36
1373.47
1443.64
1346.52
561.01
589.42
800.57
887.64
2436.74
357.15
279.10
834.84
851.22
1084.44
873.98
701.54
787.38
1043.86
1134.97
1602.88
952.89
540.79
393.08
785.62
780.26
866.05
542.28
504.90
734.90
1300.88
1371.19
2020.09
2156.40
1646.26
1188.92
909.22
872.38
1213.55
1112.76
399.19
571.74
398.29
566.95
282.94
768.27
1101.29
1285.57
1067.40
1106.74
894.26
1325.81
2297.65
2285.64
1683.84
993.17
413.19
523.94
538.19
442.90
699.53
1117.67
1666.40
1293.69
1749.80
1598.55
1556.76
1266.71
968.04
974.34
1058.59
960.15
502.92
448.10
235.20
416.14
1030.33
654.66
622.83
1016.69
1025.10
1338.33
1170.61
1012.96
786.98
967.56
1144.38
1174.41
1102.03
495.89
354.85
552.51
726.01
946.56
734.26
1102.24
1169.09
1114.66
1025.19
1071.26
1216.27
894.54
1132.91
850.44
883.33
692.36
464.58
298.39
790.18
911.75
1079.69
799.22
997.78
917.82
1056.07
1281.63
1140.10
812.31
949.86
766.24
1087.72
960.90
589.01
586.04
560.54
487.69
688.69
646.60
827.92
1238.31
1454.11
1216.33
1535.60
1179.56
930.08
1253.58
1158.96
1155.71
1325.41
1129.85
1084.05
1115.62
1030.56
1047.17
461.22
969.02
1279.04
1193.70
1582.61
1407.68
1356.81
1139.17
979.46
724.61
1812.70
871.13
1387.95
1734.78
1835.19
1638.26
1082.59
547.35
1143.91
1015.55
1039.98
1364.35
1000.44
789.60
953.32
897.12
1079.70
898.65
514.28
377.13
244.34
426.62
1243.84
568.36
636.12
804.43
840.10
811.27
686.69
853.30
922.10
815.86
969.67
1950.41
1264.04
427.65
658.23
831.40
892.05
1090.88
1066.06
1168.95
1380.33
1312.12
2074.74
1089.99
1537.12
2358.33
2758.64
1692.16
1036.06
1210.55
1783.89
2121.42
2809.54
2861.11
907.73
380.11
1133.50
746.19
987.68
1018.35
1160.18
1154.18
1104.71
671.63
2707.19
1147.21
571.16
276.60
522.81
546.82
798.95
756.66
605.55
1154.03
1044.29
2389.73
1001.91
1077.66
1146.23
1597.55
1701.35
1272.64
1115.82
501.02
617.05
843.34
958.57
566.42
413.29
823.14
749.96
871.80
758.55
929.94
1052.48
961.67
1099.45
1386.72
1517.48
1389.64
1061.78
687.11
442.81
464.44
305.86
452.30
924.83
1135.07
1398.82
1156.01
1211.58
897.27
1122.31
1064.65
1158.72
888.16
645.89
939.24
619.93
572.17
1063.88
1267.29
1088.38
1072.06
971.17
2056.86
2267.29
2000.17
1164.57
1129.19
1118.95
916.34
1006.65
669.11
945.50
828.71
786.46
565.22
645.12
460.61
1375.72
1488.80
1505.45
1336.97
1416.94
1505.01
1479.25
1131.50
1010.51
588.74
740.28
1062.82
1144.15
1046.91
690.06
487.18
1895.53
2056.45
1811.04
1369.50
1052.24
1053.82
1079.23
981.33
915.26
1039.12
673.08
759.56
1147.31
1224.30
1032.67
705.27
380.91
678.52
880.72
1010.47
1165.78
1308.05
1360.02
1433.81
1287.75
1139.17
855.31
181.97
431.92
546.69
749.49
517.78
731.98
847.29
1276.82
1365.05
1569.14
1055.16
945.40
918.12
1183.97
1178.52
979.80
830.86
697.00
464.32
522.82
475.96
899.76
1215.30
2102.53
2251.94
1941.69
1567.45
1157.02
1105.01
1021.01
924.86
1234.48
1099.03
382.77
342.82
412.91
696.86
660.33
563.50
547.46
937.81
1146.34
1757.63
1557.52
1132.10
1095.53
2011.30
2986.78
2739.47
2783.06
2826.30
3074.08
716.97
2965.18
2888.13
2871.92
2787.10
3021.40
2914.77
1078.56
808.16
1255.23
960.68
1316.55
1137.43
999.94
720.26
399.80
324.36
2583.59
454.06
487.19
296.06
1212.82
936.98
817.61
831.52
815.68
888.86
1078.69
802.02
1040.14
970.04
861.51
825.87
996.48
581.61
446.60
518.45
506.84
993.61
1244.04
1714.60
2491.27
2973.81
2802.60
2931.18
2910.73
1843.94
1372.98
593.20
843.38
2132.35
2523.47
2741.58
2622.09
2430.53
1582.47
1295.91
900.33
855.43
1102.15
860.28
1016.52
1310.57
1375.44
661.86
454.07
365.84
477.10
914.15
644.99
430.05
1605.57
2728.08
2713.54
1922.12
1150.49
925.78
1108.12
1564.14
1472.59
1118.35
610.33
315.35
578.89
484.93
513.30
578.86
238.68
994.48
920.69
1060.74
1025.60
1178.09
947.44
1136.66
1895.58
1345.71
1187.22
585.47
426.62
275.67
605.98
1316.88
586.62
466.45
1356.64
1251.56
1649.38
1674.38
1544.82
1181.08
1251.23
1200.73
1271.62
1163.87
1368.76
2688.86
2814.78
2799.01
2972.20
1928.07
1134.63
2949.17
2760.20
2844.45
2732.80
2883.15
2167.84
992.03
895.49
1075.50
739.14
498.12
461.74
512.75
724.32
414.57
636.77
1406.43
1610.56
2036.62
1424.47
1037.73
1031.68
871.51
950.73
1106.31
1058.17
938.59
732.07
570.42
701.70
517.72
644.60
930.02
1563.90
1563.04
1563.81
1105.93
1079.07
932.13
1180.05
2238.50
2389.62
2529.13
2325.47
2578.64
2801.49
1540.85
568.54
1339.13
1801.55
2394.14
2279.67
2373.79
1575.77
874.11
1290.81
1492.94
1332.44
1343.55
931.83
866.77
924.83
516.23
402.11
326.01
635.78
1254.35
1528.65
1274.84
922.43
902.83
1065.00
815.04
1423.07
1460.60
1663.02
1746.16
990.99
562.36
418.32
520.07
481.91
768.61
1029.48
1028.60
907.91
905.40
1209.85
1096.39
952.72
983.79
1429.35
1517.66
1386.26
1217.31
894.46
450.59
299.11
450.62
1374.54
1460.29
1006.54
1211.11
1202.01
1213.49
1018.66
1191.06
1051.36
856.69
490.85
560.03
618.24
550.25
492.26
419.18
499.20
944.16
1718.65
1676.85
1727.13
2117.93
1902.13
1566.47
1337.84
1211.89
1199.22
435.77
961.94
1981.30
970.68
654.17
542.40
1063.64
1228.76
866.22
842.85
848.72
1374.94
1510.76
1714.13
988.78
993.02
827.83
888.36
1496.09
1433.28
924.09
228.16
572.76
1057.15
1674.53
1446.56
1701.48
1650.69
1752.33
1923.47
1761.89
2167.65
2110.04
1759.15
1580.32
1383.27
660.34
661.90
726.31
758.63
1978.91
2055.09
1753.53
1075.89
1070.45
884.17
2333.82
1256.16
1024.48
1054.32
644.59
558.57
578.26
473.45
444.51
717.36
726.42
2094.26
1420.43
1749.52
1012.14
961.49
813.21
1041.78
1328.97
1200.60
892.89
450.48
2302.99
434.32
353.33
418.01
739.23
1098.09
1235.84
822.82
1003.21
912.79
1073.26
913.52
1042.52
1062.11
1418.39
1085.78
526.66
295.52
1073.06
1970.11
1603.07
866.13
1031.52
1075.18
819.15
697.98
1023.20
879.91
1016.20
1059.11
1353.13
1246.58
471.36
439.34
578.53
575.87
715.79
849.30
603.97
865.41
1104.89
1042.51
840.20
1037.25
974.69
1073.94
1280.12
1028.85
917.45
692.86
469.20
613.37
539.90
587.38
454.73
802.97
1428.71
1271.65
1258.02
1105.47
1252.53
1311.37
1138.75
1210.17
1051.60
514.43
310.31
1342.48
415.83
581.72
515.25
531.51
1055.19
1107.50
845.07
1082.80
938.67
1586.70
1373.80
1295.75
1325.28
933.46
1223.50
1363.28
1271.96
663.08
491.41
862.78
616.55
1251.92
1299.76
1505.62
1835.79
2619.41
2886.92
3072.93
3011.44
1578.51
1071.20
1236.97
1413.04
2848.18
2779.92
1822.32
1545.12
1621.27
1586.29
1458.78
1285.65
1059.80
1056.34
1035.31
1135.20
1537.53
1623.02
2128.38
1900.02
1180.67
309.07
729.73
1820.02
1638.57
1276.33
1150.25
1277.39
1835.61
1995.43
1765.16
1030.77
996.20
1212.84
1127.38
317.83
457.39
592.09
196.52
506.16
378.93
845.67
1019.98
971.08
954.64
837.02
1056.81
1112.83
1191.58
1111.13
1070.05
932.37
585.88
560.42
479.24
364.92
508.35
580.83
1082.06
1534.16
1424.05
1044.05
1108.63
1043.79
1317.36
1209.47
1471.46
1062.88
704.71
619.42
1471.23
796.67
558.46
435.17
506.36
902.20
1112.14
1037.79
889.27
1049.09
1383.03
2322.25
1263.70
1151.27
1294.76
913.96
1261.45
1683.70
1608.94
869.00
550.20
879.12
1330.94
1288.33
1071.98
953.48
1078.49
1151.51
1080.12
1168.18
1148.09
1178.83
627.83
478.20
517.80
541.22
522.66
469.99
894.25
1099.48
1014.96
982.37
1466.38
1575.18
1327.06
1110.71
1756.66
2905.58
2211.09
1090.57
472.98
365.67
952.08
935.85
1379.46
2351.13
2692.56
2324.43
1584.32
1257.00
1251.97
1116.07
1146.24
1157.01
937.00
475.16
522.25
563.25
634.77
894.17
898.93
1005.85
1008.21
953.52
899.75
1226.06
1245.66
1243.36
1308.84
1147.33
994.42
859.82
445.60
1007.51
2203.35
2363.90
1279.64
427.66
1185.22
1507.42
1380.50
1072.09
1187.48
1308.67
1155.64
1018.07
1215.77
1135.57
951.14
614.78
649.15
401.08
779.59
1317.25
1089.99
940.75
900.43
900.81
1011.88
770.26
1037.88
1000.30
1074.95
1029.19
1007.24
685.82
1091.62
887.96
1072.10
1017.97
1221.55
1709.61
2913.34
2714.28
1775.36
948.29
1856.51
2438.69
2449.14
1565.61
1306.61
983.49
425.88
1091.19
1690.50
1576.59
1059.58
528.05
793.53
1575.55
1693.85
1031.47
829.59
886.15
1192.70
990.19
1049.42
1067.09
581.99
403.73
354.81
373.74
477.01
562.93
870.02
1467.14
1211.24
1309.39
1045.79
1144.56
1292.79
1129.23
1322.79
1271.40
1034.08
569.48
994.37
455.57
983.36
997.47
732.97
663.40
1348.48
1454.29
914.87
994.22
893.75
1220.54
972.80
998.58
742.14
1090.90
1062.38
1252.21
1010.28
814.03
536.06
820.18
1425.81
1143.90
1047.61
970.91
804.81
883.66
1531.81
1942.59
2446.78
2897.15
2710.35
2752.83
1303.83
1224.57
2279.82
2886.60
2252.89
2393.85
1746.36
1322.49
961.79
923.86
1643.57
1049.75
975.49
1095.41
1151.37
328.79
583.85
720.06
886.07
1069.41
1708.80
2341.78
2548.43
2015.53
1334.56
819.36
835.00
1109.14
1333.70
983.04
935.09
1419.76
2831.26
1393.51
768.42
466.88
1064.38
1094.03
1004.78
1300.45
1697.18
1875.51
1400.74
2816.69
822.99
1108.68
963.20
855.98
854.26
1452.83
1418.88
1550.37
1176.14
1451.87
2012.97
1324.36
984.65
1098.33
1102.97
1712.18
1564.88
1080.06
1231.26
838.94
979.85
2122.62
671.08
467.19
478.97
434.91
531.03
879.84
1234.62
1298.71
1314.75
1193.39
2050.57
1480.96
1694.45
1701.54
1643.98
1378.50
1319.60
1033.37
383.07
432.79
581.52
1134.22
897.46
1033.45
936.31
1298.06
1038.08
1113.50
1140.32
1052.16
1132.93
1040.27
1122.18
1055.49
668.95
587.71
712.38
567.54
313.40
1217.51
900.03
982.67
1005.50
981.89
1134.13
1479.44
1478.98
1480.45
1348.73
447.19
1259.85
1489.39
1394.73
1091.00
823.13
528.25
1233.81
1177.54
1507.64
1193.27
1159.96
1273.40
1445.33
1044.41
932.41
968.62
548.10
944.95
698.40
536.51
312.25
527.29
943.74
1003.12
1153.22
1478.32
1252.94
1128.14
999.90
1018.87
1069.34
1197.73
938.40
874.65
516.47
227.65
534.77
674.88
663.03
1136.29
1563.86
1296.34
907.30
880.10
1099.68
1041.99
1030.84
1039.28
1044.58
362.66
667.26
604.93
448.95
370.04
285.36
565.23
726.41
1102.16
1174.58
924.55
1183.62
999.56
1336.56
1370.82
1210.87
918.17
747.38
770.40
964.71
638.83
582.47
514.96
628.34
904.85
1148.55
775.54
975.34
948.76
1155.90
1157.06
1156.88
971.37
641.60
368.26
385.76
362.74
328.26
500.61
453.25
1109.06
1038.00
898.16
994.60
1193.23
1159.54
1404.41
1351.92
1252.48
1148.55
690.05
924.02
902.24
679.30
569.43
1145.94
1408.50
1011.02
871.91
1197.97
970.10
1312.70
1016.64
1002.34
847.12
1046.04
1080.26
290.57
588.28
554.98
925.94
849.20
521.19
930.40
936.59
1194.37
1048.74
1300.62
1076.63
957.26
941.33
1153.04
1026.20
1767.63
2119.22
1810.44
532.89
1129.69
1449.20
1714.86
2217.51
2451.99
2250.04
1802.74
1464.16
1072.99
1012.47
1423.94
1133.70
1932.25
362.90
404.28
779.78
717.54
1135.13
1057.94
479.86
900.85
977.07
1154.38
1406.11
1660.94
2227.83
2338.82
2105.53
1438.72
971.01
735.06
1217.09
1047.90
1068.09
1439.56
610.84
739.30
881.27
1099.51
966.46
1051.06
716.83
1108.60
1032.38
1195.12
1650.48
841.62
617.53
772.86
488.08
445.72
448.70
450.36
891.53
804.40
892.37
2025.55
985.47
1026.98
683.72
984.66
988.53
1210.45
964.11
658.37
735.73
738.41
2074.35
1139.00
398.25
1257.65
858.25
1062.52
1099.98
937.77
1257.00
1440.90
913.83
2625.44
926.87
524.08
1443.80
1464.11
1743.03
1596.17
1079.32
800.10
757.24
1228.67
2886.89
2943.93
2623.78
2452.26
1723.81
1009.37
840.24
975.62
1131.13
547.28
694.48
1795.19
1169.55
836.04
829.55
1038.22
1293.55
1234.68
1113.83
1334.25
969.27
1312.09
910.67
1491.80
1391.54
956.27
471.78
537.63
396.66
694.59
342.42
1020.38
1042.07
1029.10
852.61
982.61
1360.27
1652.54
1370.78
1132.28
1023.30
595.34
820.56
1090.26
637.70
622.53
812.29
1023.87
1121.04
1503.03
1172.44
940.82
868.51
688.19
942.89
942.00
817.05
838.02
288.07
411.12
487.35
314.94
709.97
356.23
1005.14
1042.00
1036.78
1026.25
915.28
1063.32
1119.54
1163.38
1120.36
1203.67
674.71
435.74
453.70
549.80
554.66
469.53
1262.87
2454.47
2715.92
2480.63
1587.22
1600.10
1413.52
1503.16
1595.72
1450.13
879.72
844.55
2277.10
2780.12
3097.79
2477.31
1975.35
1222.77
885.06
863.82
1150.61
960.17
837.36
1111.32
1526.10
1929.25
2251.20
1915.90
960.44
718.69
551.85
969.06
365.16
740.28
855.98
1112.22
855.98
1245.06
946.81
1138.03
976.91
972.55
986.19
884.24
649.31
835.91
488.72
534.52
466.05
540.40
613.01
994.82
864.84
962.93
751.17
943.78
1127.01
980.53
787.35
1084.32
990.07
646.70
433.34
591.22
592.47
511.30
537.49
878.63
1555.41
1708.32
1487.92
977.97
915.38
1307.74
1239.08
1479.31
1254.54
709.13
372.14
429.16
573.62
553.77
396.63
637.96
995.17
640.05
1026.16
1119.21
854.83
883.57
1013.23
1281.95
1120.08
1084.41
617.61
451.39
517.45
957.36
828.91
563.72
550.97
1015.02
1043.05
1238.36
858.47
1364.99
1300.95
1633.34
1946.07
2612.61
2786.17
1716.60
502.97
292.27
928.90
1103.88
1248.64
1846.87
2822.94
2862.16
1224.52
1095.02
1208.09
1051.18
942.46
1283.45
1116.11
887.09
370.85
488.65
1051.81
743.55
445.84
719.82
1859.83
1751.13
1631.80
1346.69
1523.80
2200.54
2694.65
2833.33
2880.78
2135.24
810.99
1058.76
2312.54
2384.73
1893.29
1290.36
1246.65
1177.28
1688.40
953.32
928.79
810.79
896.16
1113.59
890.17
678.49
811.51
843.88
1252.27
1739.99
524.77
457.09
429.58
762.85
862.40
1169.34
1051.42
1299.03
1672.21
1996.21
2394.08
1774.80
1453.87
1058.64
960.84
1104.23
776.15
228.50
1276.72
1873.36
2262.63
2843.48
1906.97
1414.92
1125.52
1165.04
862.82
1090.79
1672.72
1831.07
892.52
651.69
2167.64
659.84
978.25
989.15
1274.51
1939.92
1951.99
1635.33
924.91
883.14
875.41
2171.39
965.43
996.92
1070.77
228.52
274.69
466.28
398.70
309.03
629.41
1010.76
894.86
1118.50
858.32
852.09
782.68
953.88
1138.00
1500.04
1351.99
1575.51
1703.61
1006.07
726.35
514.43
744.23
1061.04
661.88
1280.07
1444.05
1524.27
1360.03
1743.33
1640.83
1272.82
1322.63
1306.32
520.50
365.76
755.43
949.72
744.18
603.25
516.87
932.34
870.57
923.19
949.50
1104.22
806.97
943.58
883.41
861.96
691.97
440.77
371.36
474.57
502.41
774.39
1002.36
1098.21
1698.22
1474.87
993.01
912.60
1191.88
1219.74
1109.35
1460.55
1526.02
1522.63
1579.51
1682.35
742.73
954.17
2077.99
1865.75
2531.92
1834.84
1205.22
1068.68
1126.32
1014.25
1049.01
999.17
1132.39
1239.14
1042.47
1053.89
756.82
475.93
643.23
821.69
599.86
1266.53
1224.66
1409.82
1758.00
2066.60
2603.27
2531.67
1798.82
1613.03
1187.45
605.52
847.33
1022.66
892.71
1281.84
1717.92
1551.39
868.00
1038.22
864.57
1069.58
799.67
869.05
684.69
988.14
825.67
1104.14
1516.04
1417.97
751.53
603.34
325.27
566.74
1505.24
1426.81
982.86
1051.98
784.84
1159.48
1226.70
1247.36
1357.81
1025.64
559.04
457.18
283.83
480.08
73.67
208.21
447.73
1136.02
985.34
1141.87
756.09
938.36
1029.19
1010.67
968.37
1073.47
977.01
568.14
773.78
670.21
744.13
1139.61
1187.93
1225.25
1423.75
1590.89
1629.43
1558.93
1343.37
1422.07
883.24
1026.96
993.19
949.71
249.35
432.03
521.29
625.59
414.78
554.25
1157.76
909.88
1565.74
1710.21
869.22
1040.04
1059.27
1037.24
1034.41
1369.98
1021.49
1813.36
763.17
469.37
227.49
650.61
1013.06
1780.67
2281.04
2537.12
2952.49
3067.72
2843.18
2193.35
881.87
1374.78
2002.73
1740.36
1332.00
470.72
398.41
565.88
273.93
2003.52
1779.10
1928.77
2281.51
1636.66
997.55
912.47
1223.28
976.23
821.47
857.68
1317.34
1126.87
1884.79
1569.68
771.10
410.51
1044.49
1870.45
2211.93
1310.86
853.08
1876.56
1302.95
1716.21
1735.84
1616.55
1013.87
584.46
124.00
887.51
997.02
393.65
1521.28
925.21
857.67
849.85
936.73
981.92
1023.30
996.69
1049.55
1328.30
1215.24
2159.04
396.89
671.79
795.75
1118.79
679.85
439.72
1739.86
2355.68
2053.99
1587.19
2539.89
1385.36
956.45
882.70
1019.73
1012.53
409.19
419.13
557.81
1219.87
1286.19
1830.11
1031.97
1100.39
1649.25
1429.87
1072.69
1027.47
1105.08
984.46
1291.75
1471.11
573.41
586.84
634.00
851.57
647.26
401.11
463.16
1369.86
1523.26
1196.18
1097.43
1115.03
1181.49
1167.11
818.14
1235.87
1026.55
717.92
808.30
787.97
538.10
416.09
319.13
707.93
732.09
759.59
976.73
881.70
716.19
1009.00
911.94
1056.48
955.82
878.31
730.30
453.50
774.97
809.81
896.66
933.15
1066.05
964.88
734.32
853.36
849.05
1526.02
1818.37
1794.37
1499.26
1272.52
672.24
758.78
636.50
432.54
310.20
640.18
874.29
1128.26
1265.77
1276.75
1109.29
965.94
1627.31
2035.68
1492.11
962.58
921.15
284.76
457.04
627.22
951.84
1057.82
856.83
657.70
611.97
951.31
955.55
1028.05
1020.32
1260.26
1207.21
1268.07
951.58
852.83
451.13
404.65
533.14
907.57
597.66
825.03
1096.28
1246.47
1227.38
1315.98
954.80
749.36
1049.76
1455.25
1188.15
920.63
469.10
639.40
801.31
1039.95
878.96
1160.84
1205.60
1596.27
1335.66
1089.35
1059.61
1086.90
1003.60
897.78
956.04
844.71
879.88
360.57
490.49
421.68
883.55
998.04
1303.42
1086.89
936.78
1086.43
1100.46
1099.47
1055.99
796.88
1080.95
1128.17
1030.96
1186.42
1153.42
875.56
642.64
635.07
725.35
398.67
892.12
1345.69
877.67
1208.63
1135.10
929.17
976.80
1159.84
1009.11
1285.88
870.97
933.77
1502.00
1597.74
1426.68
1579.60
882.75
973.34
1245.53
1928.16
1842.74
1390.84
963.50
1024.03
1009.88
1108.85
1340.81
263.98
727.94
1072.98
345.10
519.06
1120.33
1952.74
2866.89
2151.33
1502.49
1669.24
883.87
1088.90
967.31
1130.82
1095.99
1521.24
1041.51
376.99
160.69
726.68
1470.85
1340.68
1352.06
1234.26
1300.35
844.79
907.61
967.63
958.02
1197.77
860.29
1875.79
550.90
797.39
453.15
456.87
297.08
766.84
1069.54
1708.27
2010.33
1894.55
1738.03
926.59
991.39
826.24
1123.99
1105.92
1099.19
794.38
584.82
398.28
425.48
1753.09
581.23
840.55
838.69
1197.15
1673.55
1121.40
823.19
1304.17
1054.59
1043.64
2038.04
1028.06
462.77
345.25
586.34
614.20
684.51
532.21
898.44
1197.87
1455.94
2378.47
1454.46
1972.65
2040.72
1251.77
1141.14
1066.91
520.50
410.62
425.73
536.21
2289.33
1657.85
1094.35
1091.37
1122.70
960.66
1759.24
2732.49
2058.58
1197.53
990.47
1907.88
934.74
739.03
1103.84
1479.46
1150.31
1015.50
390.83
688.72
1005.09
997.23
1255.62
891.41
1203.01
1113.24
1071.62
936.07
1035.34
855.69
739.68
1086.64
741.94
595.22
467.31
490.44
856.72
920.95
964.02
1024.09
976.34
879.76
935.61
893.89
1014.10
950.64
629.50
422.31
480.45
520.32
747.95
701.08
752.81
1271.12
1689.77
1708.83
1475.37
1502.23
1705.12
2025.54
1412.44
1281.21
1132.13
839.36
356.39
1726.22
2066.41
1880.74
1274.27
545.61
946.90
1069.00
872.23
779.29
855.09
1196.01
1370.36
1257.91
1268.54
989.10
332.64
321.64
362.63
886.28
366.95
466.87
913.45
1320.37
1308.28
1129.29
628.56
1183.54
841.84
965.44
853.20
1127.46
780.56
805.11
859.25
773.07
383.13
696.38
1832.56
2904.27
1808.13
875.47
1030.93
1437.34
1301.39
1197.03
1012.44
1025.27
1014.56
823.22
913.67
1291.36
1197.19
823.68
480.49
1059.33
1097.73
932.10
968.11
929.40
1004.52
1195.07
1072.30
990.75
853.58
1021.37
773.84
964.62
956.28
1058.72
649.31
372.33
904.27
1130.79
1131.88
1418.07
1741.52
1270.85
798.44
834.02
991.50
1017.38
506.74
523.26
696.11
432.21
737.40
915.48
723.50
1469.67
1337.95
1804.19
1284.92
985.18
972.21
960.12
1107.59
1233.55
947.58
569.35
513.49
589.13
847.95
1251.41
946.70
989.00
890.49
1122.98
1291.47
971.02
950.17
988.33
1035.17
1240.00
1027.47
1420.71
1710.67
1748.60
1237.61
501.73
298.15
485.26
854.31
1051.65
1209.06
1042.70
971.84
1089.57
900.97
1136.83
791.84
1126.12
958.31
1058.52
692.14
1202.96
519.00
777.32
617.96
1185.56
1309.26
1455.36
983.57
778.59
955.22
1009.37
1177.98
952.57
849.13
553.22
454.18
359.21
472.64
1150.87
1144.98
593.10
1145.46
2108.56
1634.61
1577.85
1704.99
1539.84
1141.17
1066.48
799.39
1258.54
1235.23
1218.09
1959.24
623.15
812.95
1245.70
939.54
816.48
942.47
918.12
887.36
922.44
1133.06
2071.14
991.76
1304.64
1391.08
957.48
894.64
989.52
1035.20
570.36
790.08
830.32
2212.28
1237.10
1202.65
872.25
894.22
973.74
1714.46
1739.96
1066.59
513.61
536.78
2326.89
1403.23
1536.05
1251.82
634.85
1027.55
980.73
1003.89
1002.97
1051.20
1129.57
2733.60
1063.80
968.44
988.79
597.89
537.35
683.19
553.16
513.29
554.26
915.48
1752.10
1542.09
1769.11
1283.96
1350.36
1552.34
2256.28
2851.86
2895.66
1350.27
760.10
900.06
640.85
424.36
635.84
385.70
1171.76
1027.32
1232.36
1791.22
2062.24
1432.85
1183.25
1122.43
1085.60
1172.46
1028.68
400.24
501.21
1088.54
1058.37
723.71
405.50
1202.16
2029.83
2145.52
1852.29
1232.07
1071.07
979.30
905.18
1161.38
1252.50
431.73
646.77
464.17
418.25
406.55
391.58
945.86
930.80
973.66
886.80
888.16
1085.04
1327.89
1054.29
1085.31
1191.75
741.16
422.99
414.55
426.09
782.87
428.81
529.88
919.48
1048.88
1029.99
866.77
933.11
1078.05
1404.75
1004.12
1245.39
1667.79
1552.62
1069.31
480.62
1099.70
1161.94
714.70
554.66
783.11
977.02
819.11
1025.52
1608.95
1377.90
1091.94
1149.63
1054.46
1107.46
653.11
574.14
951.12
1420.02
1496.13
1277.43
1334.89
1446.21
1173.21
1253.35
822.90
980.54
846.89
1064.32
1061.80
1095.53
886.55
874.57
929.86
968.05
661.34
541.33
367.38
1201.72
981.71
1204.66
1133.36
1350.72
885.28
993.61
928.05
1240.35
1271.01
673.48
761.09
850.22
1081.10
1130.63
938.50
915.09
1090.69
1032.24
1051.01
1258.62
970.58
1131.69
871.44
1067.68
742.68
1132.96
361.42
1082.08
1223.96
1135.68
844.03
759.97
918.11
946.94
986.94
1203.68
1488.41
1140.89
1130.72
1081.86
1200.50
1562.44
1115.28
597.34
277.39
279.78
423.76
629.10
855.82
2501.01
2812.64
2321.82
1180.23
1056.87
1741.76
1488.24
965.47
1301.98
1137.11
1092.32
1149.15
813.40
488.44
561.14
552.31
993.96
1630.16
1228.10
1382.97
759.38
812.97
1971.57
904.83
1091.67
1200.04
1200.67
805.01
542.04
565.03
476.38
1190.46
1460.77
1847.35
1644.82
1324.12
1242.16
821.67
1044.91
767.42
1022.42
1053.46
1184.53
1468.29
2757.18
3081.38
2976.17
2435.79
954.55
1015.80
2273.48
2838.95
2895.51
2789.76
2870.68
2861.16
1763.61
1135.06
1206.22
904.62
920.03
644.69
528.50
604.69
874.55
1422.58
1943.37
1495.18
1783.40
1611.16
1103.42
1078.30
943.51
1015.46
1045.75
1218.43
1122.00
1953.13
945.94
1119.81
1013.52
585.50
500.11
708.03
971.79
771.85
948.98
850.60
2997.56
1141.50
997.59
1161.21
1127.37
908.96
1035.11
941.51
376.43
768.33
1361.83
2175.33
1438.17
1509.56
1487.65
1396.81
1613.32
1553.71
1278.21
975.65
938.60
947.71
704.88
886.95
708.28
430.74
457.42
720.49
581.07
700.74
1076.41
1056.84
1332.43
1880.40
745.53
1061.85
1122.61
1223.33
1213.67
488.12
385.98
320.03
533.24
1104.89
435.71
419.75
1706.44
1336.06
817.10
780.63
1011.98
916.86
1091.96
1053.05
1219.88
996.47
592.27
824.56
566.64
353.02
534.26
814.56
1518.09
1354.52
1201.27
953.11
1211.25
1372.13
1252.83
1163.71
1152.01
1022.83
604.81
827.30
1145.35
941.23
947.70
814.93
1407.67
1734.37
1385.71
1568.72
964.49
839.58
903.09
920.70
1643.04
1675.17
1105.42
475.68
356.26
835.15
609.24
709.54
687.85
818.84
900.20
1236.02
940.66
1105.34
1576.06
1774.50
1148.79
912.57
1266.31
2736.02
2814.93
2366.65
872.68
602.88
728.53
642.53
1025.20
1341.57
1319.33
912.95
1086.23
1048.20
842.99
1110.87
875.82
1046.09
884.62
585.39
374.21
654.68
797.57
461.42
398.91
1021.93
1054.53
1129.17
1452.31
1385.47
992.00
1094.25
1252.80
1347.17
1326.33
306.62
519.52
587.45
1163.12
1858.74
2059.62
1932.29
2136.28
2581.75
2617.86
1250.14
906.24
904.14
1932.73
1895.66
1940.93
2879.10
2406.29
2089.50
884.90
376.42
333.45
659.92
756.70
877.62
1157.47
895.91
1293.36
1767.61
2020.43
1875.82
1508.36
1615.18
842.36
475.13
688.60
645.85
532.49
1284.13
1517.44
1714.54
925.72
941.05
990.98
1063.14
1345.40
1305.56
1909.54
2296.11
1382.70
503.36
1095.55
1778.11
2254.71
1891.54
1927.71
2476.35
2460.54
2129.09
1711.39
1256.82
875.77
1246.14
1280.08
1265.03
1568.86
1011.29
906.89
386.57
640.23
548.82
1474.16
480.16
892.62
1584.56
1783.73
1523.86
850.30
1270.15
1484.10
1777.83
2384.70
2508.32
1646.26
375.03
415.04
500.59
537.77
1715.18
1864.52
1704.20
1134.34
1214.82
1833.66
733.83
935.93
936.76
1342.09
1426.17
1399.37
1256.43
1275.48
1262.50
1563.93
1855.30
1073.45
478.84
822.53
929.15
974.95
929.87
1141.22
1253.57
1167.83
1047.66
1964.12
506.47
1007.62
983.27
919.30
568.68
451.15
532.05
1335.61
1651.12
1568.90
2338.69
942.97
900.90
1065.37
1000.70
987.32
1120.82
509.34
409.87
487.33
669.66
2174.95
628.75
288.42
1240.47
1611.94
1804.97
955.95
868.52
1038.42
1244.90
1366.95
2253.31
1190.83
901.59
656.58
354.33
620.25
1428.69
930.49
726.01
945.55
1057.34
2972.74
852.38
1152.85
928.48
877.04
987.86
1042.90
1126.37
1075.14
567.54
432.53
781.87
660.81
1707.87
2402.88
1886.71
978.99
1027.55
658.97
974.12
852.99
804.22
1212.33
1134.32
983.27
1106.04
862.29
401.64
680.92
929.41
1240.72
1519.46
1706.97
1426.90
1183.39
991.94
846.88
972.54
1053.65
1109.64
1013.52
591.80
850.30
833.16
1003.26
912.05
1232.04
1786.93
2035.04
1211.95
1219.17
834.54
1119.25
1066.85
1057.65
931.32
1143.73
675.02
457.09
644.21
448.62
262.87
543.12
458.77
1435.76
1277.03
1565.71
1502.87
833.05
916.12
1101.60
1277.53
1201.00
1026.50
694.99
629.78
815.20
844.29
651.82
327.00
343.33
960.92
898.75
914.90
873.75
1600.08
1897.24
1870.98
1521.21
1103.88
1102.88
211.12
641.47
615.20
614.91
705.35
1160.35
1301.67
928.98
982.07
1129.30
869.89
885.85
1565.07
1236.27
1301.25
1021.57
653.69
390.20
420.93
347.56
642.91
766.04
799.68
1390.62
1538.84
1616.51
976.12
1040.35
1129.51
899.80
723.32
947.04
858.68
377.36
1063.88
1071.26
796.74
576.40
963.01
687.82
977.12
896.24
811.31
1137.82
1204.54
1043.93
807.63
908.38
773.53
1120.60
444.33
478.29
428.68
695.03
922.51
565.43
411.12
1220.47
1366.57
1977.95
1994.33
1984.90
1260.23
1039.36
1047.01
1264.45
991.58
298.13
466.31
252.43
563.28
503.15
667.34
1367.28
1094.16
1215.79
767.07
1326.51
1248.97
940.74
1393.94
1457.46
1173.98
1203.59
1297.46
1160.15
984.41
467.18
641.96
713.63
769.85
974.82
992.65
1088.71
1124.08
1053.45
971.23
2010.89
1050.98
1064.87
493.43
271.08
335.41
664.88
774.27
535.57
682.80
1086.29
1255.75
958.42
914.70
1697.09
2173.82
1629.27
1487.15
1097.41
709.29
405.02
605.40
1526.62
911.43
751.32
810.08
1377.66
1586.11
1400.63
1854.44
2189.72
2220.70
2074.92
1883.47
1614.76
1424.86
1116.46
617.64
529.49
521.28
628.42
1211.74
837.09
1099.64
2440.76
1635.83
1040.59
961.95
946.61
796.87
885.99
756.82
918.79
504.33
443.50
1865.29
647.75
332.76
713.22
1463.92
1282.65
960.08
855.31
1072.26
1544.53
1632.85
2402.45
1814.67
1825.45
1424.91
792.51
983.50
958.88
652.44
327.11
612.52
969.23
2859.22
907.64
1028.34
909.77
893.30
948.03
967.04
952.03
962.91
606.32
379.54
2159.18
623.27
743.17
727.37
513.12
892.16
1638.76
2943.46
2935.66
2237.87
1617.05
1580.64
1088.17
994.39
1288.91
1541.51
1120.91
394.02
568.82
496.67
665.89
510.05
957.59
896.23
1051.04
811.57
908.57
1167.69
1343.63
911.41
1046.83
1108.60
696.28
587.35
573.64
441.11
1116.57
754.13
917.69
945.01
1032.79
1154.51
1042.93
982.86
1298.89
1273.01
1249.92
1423.54
1465.65
1372.52
1640.07
1500.20
1075.19
754.72
408.55
950.96
1104.37
656.98
835.93
842.15
1041.75
739.49
922.28
903.66
873.09
477.43
691.43
600.74
970.13
756.83
562.57
603.85
1153.19
811.84
1000.20
681.66
1328.41
1103.78
1108.61
857.34
1160.42
813.85
535.09
409.13
431.97
425.38
595.50
372.78
1063.93
1194.69
1354.26
927.34
1093.54
1054.92
1192.88
1486.03
1472.47
1323.47
834.50
607.94
1003.98
1066.22
1310.60
751.66
562.89
699.75
1230.87
997.19
896.71
766.57
1001.47
1488.96
1758.67
1512.57
1561.18
594.86
456.68
469.00
662.40
656.47
284.23
794.11
1134.44
848.30
1026.19
1008.05
1318.87
1007.41
1011.34
949.37
955.52
1104.72
1087.63
885.29
774.84
919.40
667.54
711.56
832.81
1186.28
1405.57
1445.53
1135.47
1228.88
1504.10
1030.83
947.71
980.29
373.66
300.49
614.64
508.81
658.27
368.14
531.61
1110.89
1071.18
1353.78
1426.94
1117.72
937.21
895.04
985.00
1069.12
1677.90
1931.75
1939.74
1215.36
1202.97
669.84
512.47
675.05
1173.22
1414.52
1668.01
749.05
874.89
1044.87
1062.66
1059.87
1241.73
942.60
665.68
456.47
1195.31
1647.92
1620.68
677.36
2075.64
951.40
1044.20
922.46
806.82
965.16
1059.58
921.86
1213.52
1273.70
1131.89
994.49
388.49
733.66
1114.73
1081.13
620.89
942.59
953.88
1190.66
1095.66
890.47
1724.00
1110.32
1009.45
914.11
1107.67
841.07
402.50
392.65
417.22
464.07
557.58
1149.93
1102.51
835.41
886.99
1034.75
1039.05
873.48
997.91
1152.85
1021.80
768.58
1671.16
820.59
624.38
731.37
1446.33
2061.01
2246.60
2167.39
1496.03
1239.09
736.73
2281.81
1118.34
857.36
961.64
757.91
701.43
640.21
611.07
482.66
507.88
407.86
2255.50
1005.66
1199.60
1356.07
1294.71
1097.67
1066.42
845.13
1368.94
1320.13
1351.74
1991.43
991.58
914.68
426.50
308.42
602.46
891.50
1572.81
1072.46
1281.54
855.27
2521.18
1045.89
1194.80
975.64
1140.00
1107.84
918.78
593.48
387.60
787.85
677.28
1041.74
1178.13
1217.07
1208.14
1187.35
789.38
1221.79
1413.25
1703.65
1607.50
1225.81
529.42
709.51
761.10
726.28
712.91
519.64
521.21
858.19
1029.59
1214.85
1130.24
795.29
1112.34
1204.30
1591.73
1516.20
1051.51
411.53
633.64
378.14
528.09
327.53
402.22
652.02
996.08
868.32
1106.07
784.62
1270.78
2149.13
2416.92
1730.49
1051.69
987.64
1583.77
1753.24
1551.82
1247.34
1253.15
1161.27
1092.03
1113.94
1268.92
1229.32
948.47
1565.40
1435.17
1255.33
1218.32
1182.46
492.02
350.34
503.58
296.60
805.16
742.26
766.30
1147.31
1303.99
1264.84
1116.28
950.87
1071.44
925.27
1121.26
1291.31
1259.54
1244.06
1042.05
782.09
658.35
807.69
881.05
809.53
1231.69
1009.50
1127.48
817.13
1104.48
1604.00
1558.34
1069.57
1044.70
1155.23
712.44
294.98
438.50
567.08
331.20
549.72
1045.31
986.60
1086.69
955.66
1051.79
1465.81
1761.33
1499.55
1181.09
946.64
809.46
453.25
603.47
1499.89
2076.90
2185.02
1339.58
1156.12
1310.42
1141.81
1037.64
929.00
1416.37
1368.06
1375.47
1473.10
1242.88
635.27
1269.33
1816.10
1385.17
697.73
653.46
1034.13
1255.79
964.25
1053.90
1141.21
1510.83
1250.56
1014.79
1241.02
1131.17
1153.24
636.93
579.67
171.38
417.24
636.75
787.18
1385.42
2177.57
2773.75
2742.84
2357.15
2170.29
2399.51
1582.33
1129.45
1242.39
1381.04
1408.29
1252.11
1255.33
401.69
840.74
741.89
1098.77
1141.57
1049.26
1173.01
918.44
1162.38
1533.35
1238.05
980.51
1867.46
870.74
882.82
427.69
649.73
374.54
551.49
630.03
1231.94
1188.75
970.59
1235.49
1304.42
1360.84
1005.63
1346.56
1510.46
1584.21
1255.32
655.15
623.51
535.45
1708.74
429.70
898.37
1066.48
1023.79
1141.89
1126.41
947.41
970.57
990.52
1169.09
1984.24
698.04
273.08
556.32
703.28
748.65
397.19
521.67
1260.52
1687.23
1675.82
1915.66
1231.49
1533.87
1703.07
2062.29
1919.74
1056.05
933.65
1797.96
1497.57
801.40
2442.81
1196.14
1517.49
1520.26
1364.93
1456.77
843.00
744.20
1089.75
1241.68
1166.29
2501.30
1316.15
560.25
601.31
666.94
437.30
414.40
435.13
842.16
864.64
1107.12
2714.04
977.75
1128.91
1299.85
1091.77
1379.48
1375.05
1295.56
1235.22
1280.42
1146.99
2183.44
400.97
493.25
823.24
1026.81
757.20
947.29
1059.16
1129.03
830.58
1038.41
1423.77
1179.93
364.99
673.30
540.30
886.71
1103.33
1030.32
821.26
1768.88
1929.76
1955.01
1596.60
1180.97
1032.46
998.70
839.78
1036.46
1105.98
1311.18
867.04
629.94
950.44
1214.00
830.23
1196.15
1431.18
1446.57
1227.17
959.67
902.46
894.43
1065.27
1184.96
1292.40
885.54
672.65
411.12
574.52
970.12
722.02
326.20
1086.20
996.60
1034.10
1165.34
1384.88
1939.74
1537.11
1266.80
1166.35
1214.36
521.85
536.16
525.44
766.40
840.08
787.24
695.93
1140.26
1070.88
1193.16
899.55
983.91
1178.86
1099.49
967.00
1051.55
1004.17
690.48
542.52
999.00
627.85
769.08
931.36
1030.44
1038.51
1098.39
995.63
838.98
1078.18
938.99
886.83
1006.21
1023.77
811.55
361.67
666.86
547.11
494.79
526.75
561.62
917.29
823.02
806.96
805.67
927.09
1031.03
826.23
1134.76
1322.61
1318.62
662.22
636.50
694.79
348.27
388.50
855.13
1729.88
2803.85
3001.26
2169.02
1026.81
821.92
918.34
1025.63
942.08
955.65
1092.34
501.87
365.16
956.17
1419.92
1277.63
1136.56
909.85
1102.85
1389.60
1102.07
992.45
1818.41
1724.07
1710.91
1540.23
1023.46
707.10
568.86
713.32
302.65
835.27
774.58
1152.19
1258.57
1640.70
1582.35
1116.50
789.48
1034.52
947.83
953.79
1192.60
1007.64
455.66
276.58
330.51
735.52
410.55
720.37
790.08
1043.70
1172.92
1097.22
940.59
974.71
993.40
983.42
1201.06
1176.12
1201.39
1425.92
1600.91
1414.59
1144.11
1192.69
940.93
924.56
791.19
2075.20
849.83
969.66
1230.70
989.47
1538.44
2390.77
2343.85
1094.16
741.76
1041.21
1640.43
504.92
503.45
376.46
1205.77
1293.49
864.88
1009.82
827.01
991.50
1210.77
2115.87
1043.07
1431.92
1794.84
1718.75
1375.51
1224.68
475.28
784.42
1366.36
1750.03
2295.79
974.09
888.83
1112.50
1270.53
958.77
1127.66
796.77
920.10
717.86
493.45
1552.29
640.32
611.63
704.82
1004.65
1486.38
1197.47
1029.97
833.92
1082.49
907.79
2415.31
1022.47
1088.20
1022.96
837.49
741.27
660.32
688.87
872.48
554.09
1249.84
2120.45
1429.42
1171.38
1344.15
1787.17
1706.31
1369.42
936.74
958.97
988.40
1294.35
2773.68
685.09
701.93
596.60
519.55
842.80
838.46
989.70
788.84
818.52
1117.28
2356.09
861.78
1199.21
1319.41
1058.15
914.54
869.89
717.12
860.65
666.01
492.26
1106.20
1979.96
2215.79
1656.71
1540.40
1184.96
1252.60
1487.92
1660.65
1401.63
1301.72
1234.01
740.16
584.54
297.31
535.46
1574.15
2734.61
2807.68
2872.43
2954.13
1713.72
1072.26
1195.14
1347.73
1211.38
1156.98
988.79
592.42
620.34
617.18
490.73
460.88
1229.95
1590.97
1382.34
1391.46
1497.11
1287.39
1141.47
1116.03
1099.72
1092.66
1066.24
1203.02
1150.46
1087.18
721.71
559.94
629.34
1092.00
1065.07
915.99
848.77
1072.29
950.88
1138.61
1088.77
1226.71
1068.02
1449.34
1791.99
1000.84
775.07
410.08
578.19
1077.79
1363.70
1054.48
1024.51
1017.77
1065.89
1095.79
1144.40
1433.55
1116.88
487.88
687.15
801.78
386.03
865.55
870.99
665.94
1108.86
986.58
979.31
902.33
827.27
996.99
1485.55
1719.33
1662.02
1383.37
438.76
222.24
524.83
727.91
845.99
790.56
1389.69
2178.89
1624.81
1718.87
1243.81
862.03
1202.29
859.46
981.93
916.80
841.81
366.07
563.65
724.98
609.94
344.06
719.48
985.30
1069.36
976.64
1175.38
1162.56
772.40
1211.04
1190.69
1231.22
1148.62
631.19
526.95
358.04
483.50
209.25
716.26
614.25
1474.43
1303.75
1238.83
940.23
1309.26
1716.00
1176.16
1099.98
1320.49
1658.06
1710.05
1081.75
486.37
833.15
1229.98
699.29
697.51
924.30
889.16
847.78
1117.85
919.44
1154.32
936.93
1049.89
1263.48
1021.89
749.49
825.43
587.70
540.72
562.81
701.30
1751.11
1713.27
1623.89
1268.34
791.08
903.48
1032.60
877.15
1135.43
1277.44
515.01
1573.95
758.24
893.83
876.42
628.74
649.25
839.48
1163.96
1059.31
865.32
980.42
1246.44
1028.29
1037.42
1425.25
1478.50
1499.61
1116.73
603.56
559.13
351.33
421.44
1770.60
1218.99
1384.09
886.94
871.70
1001.53
1075.02
949.90
1173.56
819.54
803.68
1253.01
624.71
832.59
868.87
492.65
661.88
752.01
987.35
1250.79
948.92
824.58
2053.77
964.81
1004.18
952.13
982.94
799.81
670.31
704.78
937.71
918.56
1039.69
1982.95
2053.83
1727.37
1284.28
904.51
1000.13
1511.93
1335.82
1022.10
957.99
972.60
1749.21
904.64
1052.88
1481.25
1376.22
535.28
646.06
1565.05
1736.93
1098.94
1084.57
3066.22
964.85
1113.81
1226.03
1226.98
1310.42
620.28
