793.26
685.33
548.30
352.72
354.53
432.42
400.54
400.41
443.12
410.03
283.13
299.66
491.78
1823.95
597.92
483.94
335.68
364.31
374.54
394.39
373.91
488.62
505.81
456.32
506.85
538.01
824.48
711.09
587.38
585.77
479.19
696.10
862.17
944.18
706.04
352.49
350.80
538.75
395.52
445.79
396.26
381.56
611.30
719.04
1113.51
1788.69
2564.18
2862.51
1984.93
537.41
1316.22
1731.39
1156.68
930.23
1732.11
2089.98
809.06
603.64
1018.76
864.78
776.68
580.18
1593.29
387.82
195.99
344.21
516.92
636.10
579.07
560.45
428.41
322.97
324.99
284.86
373.20
692.74
850.41
875.10
910.55
969.01
878.35
504.95
420.04
1217.25
1437.60
1047.16
446.73
1451.92
960.31
1284.80
1413.34
893.42
372.64
576.45
972.38
539.35
392.58
738.78
1045.32
1860.00
896.28
881.46
594.94
964.55
1193.69
771.83
515.62
344.81
226.89
356.25
404.32
3273.58
404.85
387.10
290.82
667.47
982.21
318.39
597.13
421.99
232.83
289.43
584.65
808.07
1281.91
490.35
333.19
445.59
929.83
1412.51
1762.84
1012.44
431.63
583.28
1267.79
1404.18
1489.77
646.92
323.28
241.37
398.49
461.85
506.50
496.69
550.99
462.45
483.36
710.38
1952.06
1092.34
1122.43
745.42
818.59
845.32
451.84
328.17
253.84
686.72
785.59
537.52
1434.03
376.89
457.29
595.79
780.51
871.82
822.95
617.40
546.88
575.79
608.44
646.28
580.82
1039.25
675.26
275.14
614.67
906.82
661.10
461.90
515.47
564.55
406.69
366.68
290.13
293.12
465.48
440.88
570.69
504.39
428.36
447.56
571.79
677.05
908.24
891.34
635.17
271.05
625.50
371.98
495.45
1301.30
1832.71
1210.02
509.10
308.68
327.13
560.65
698.60
525.04
444.28
972.83
1119.89
1183.36
502.09
683.01
919.84
766.96
269.77
381.43
535.98
527.88
480.17
1751.45
461.28
1045.70
702.36
284.83
550.88
676.05
614.19
398.22
388.11
593.94
825.97
1058.13
1143.67
901.87
474.83
538.12
1054.10
1222.26
1292.78
1383.71
1218.76
730.69
461.67
1370.26
1196.90
766.20
357.86
1218.35
1863.96
1778.05
1172.66
456.79
337.82
240.65
379.75
802.83
289.80
263.33
296.63
294.87
449.87
517.23
543.22
517.52
539.12
611.08
565.76
523.90
724.72
506.77
586.25
690.74
665.02
774.61
1154.44
1408.99
1747.13
1449.46
513.32
338.80
682.88
801.46
1376.80
985.93
325.21
401.49
503.20
601.35
651.57
575.43
660.56
852.48
1859.39
691.96
638.22
474.73
325.91
328.45
324.54
317.49
359.52
422.26
392.30
442.15
504.05
979.85
1123.63
577.80
337.09
843.09
1231.19
371.22
354.59
410.22
492.96
457.81
505.26
793.57
410.02
400.52
410.12
422.38
618.91
754.91
414.49
331.55
348.49
320.39
391.46
481.82
752.84
685.75
725.74
655.45
293.26
680.41
288.75
757.64
1215.55
1503.74
1408.85
886.11
1447.88
316.89
608.31
545.94
629.74
363.38
620.85
884.78
1028.75
1292.18
1929.94
2639.42
3124.90
2419.01
906.00
1015.95
1979.17
1905.63
1490.34
1168.78
945.59
554.53
694.31
671.40
808.61
381.20
297.49
440.02
450.54
497.31
429.69
561.94
784.89
694.54
516.28
427.02
3227.26
656.42
758.08
889.85
890.60
638.09
405.69
353.68
574.60
353.35
236.85
477.65
371.56
947.77
660.39
396.40
301.35
308.83
477.99
460.52
365.95
332.64
397.25
660.71
968.35
961.69
1103.80
678.22
547.33
804.67
1489.81
2322.71
2735.14
2045.33
660.74
761.01
1688.85
1816.50
1537.12
1190.33
1198.82
799.23
333.97
302.66
303.92
343.34
479.47
477.23
452.09
3099.39
873.21
1281.93
1571.09
1448.67
1147.05
1037.96
937.38
379.75
826.86
1960.43
2600.41
1586.75
451.16
863.95
1110.39
975.00
703.74
658.11
690.54
721.35
668.78
612.47
396.81
723.69
279.23
486.56
891.78
773.54
333.93
550.11
761.87
583.34
488.56
517.72
340.80
660.26
882.83
355.98
384.39
698.46
1144.67
896.50
699.81
456.74
406.89
487.68
418.84
446.33
3117.09
507.77
563.49
410.55
361.86
454.99
333.15
610.01
802.82
949.31
678.61
571.61
648.34
940.53
477.00
350.13
322.03
373.39
587.63
724.43
534.34
293.48
315.88
318.68
401.64
393.23
524.00
383.67
319.57
361.97
371.34
330.69
440.53
606.74
802.35
841.83
921.29
809.73
458.33
461.59
574.92
372.78
328.85
492.64
601.76
786.71
900.99
683.25
439.53
321.04
364.88
3049.42
439.93
327.59
373.19
480.81
510.18
550.37
729.70
816.24
786.58
769.84
573.58
432.24
976.42
324.05
388.96
292.29
374.46
252.94
326.10
464.29
313.63
311.51
351.04
488.89
532.36
799.13
539.56
466.26
451.08
410.18
493.16
495.14
462.27
456.73
643.34
876.05
1329.77
1015.40
550.04
691.59
1921.88
1456.55
426.74
454.07
451.96
337.11
300.76
482.27
564.21
550.33
749.55
785.21
707.80
481.38
415.89
250.62
349.99
311.99
424.37
369.57
328.89
362.63
2977.02
782.06
919.90
1005.21
718.59
594.06
347.92
388.35
391.60
754.05
765.11
718.89
674.52
1118.48
690.75
598.34
389.20
445.53
1101.38
1733.30
1464.01
448.80
621.24
438.17
316.33
820.17
501.69
563.33
741.48
683.06
556.02
345.91
313.15
486.30
634.60
670.21
623.93
560.50
724.08
787.98
851.06
579.88
351.82
965.71
885.57
496.40
327.06
520.03
579.05
498.64
395.66
586.48
585.09
777.58
787.04
644.47
507.10
330.48
387.72
290.82
758.91
1602.92
2697.60
3070.31
1378.40
504.42
1343.10
1437.37
736.40
312.48
563.29
621.01
328.54
811.65
1118.55
874.56
451.57
558.75
467.78
454.27
395.89
320.32
327.10
386.38
406.55
389.80
519.65
656.33
777.15
538.43
306.95
319.23
338.71
614.89
543.56
482.41
420.02
412.75
372.68
532.99
2989.34
733.98
644.76
567.89
462.65
533.98
599.78
1039.10
1794.14
1562.37
757.96
246.12
1031.31
1406.47
807.79
385.14
342.48
492.17
290.97
308.48
547.06
484.10
413.36
555.11
496.40
767.24
259.76
381.12
519.05
316.51
437.59
416.16
349.28
416.81
369.75
481.20
462.37
572.43
903.96
846.64
822.88
587.57
495.34
345.95
408.55
378.46
497.87
692.34
1351.72
1623.12
1631.44
688.28
407.62
584.94
596.92
384.93
429.99
393.76
413.22
494.50
593.66
721.12
844.31
873.90
406.29
394.08
279.79
402.14
313.41
996.03
875.15
570.96
402.14
371.79
420.48
331.36
797.50
731.37
559.65
448.91
374.49
420.80
499.86
613.54
621.11
650.48
698.31
368.29
3828.18
603.77
515.60
709.96
579.33
446.49
426.35
523.46
461.73
417.23
319.62
446.36
434.01
806.86
713.88
937.83
900.50
592.78
361.49
607.03
390.88
343.87
346.09
328.34
371.64
493.67
899.94
680.53
718.58
1051.55
1533.91
1819.15
1132.40
382.31
1377.75
1806.59
1435.99
681.11
351.73
512.06
516.20
651.62
675.93
641.31
614.07
530.96
729.21
675.33
571.84
432.65
834.47
369.53
333.07
444.17
588.51
653.38
762.86
639.06
541.10
442.91
615.82
490.62
374.52
595.69
938.91
1257.56
1209.82
562.82
305.79
713.57
974.85
761.90
323.74
366.48
398.87
1728.22
500.86
444.52
475.06
501.73
585.00
514.45
345.35
410.18
393.10
394.26
329.42
303.09
618.23
459.22
448.92
480.87
328.80
318.46
579.07
661.42
802.37
896.53
761.34
706.35
505.60
484.14
370.22
358.83
469.44
793.18
1333.09
1586.53
1474.25
1152.54
581.31
336.09
619.24
470.80
480.34
339.30
1265.16
1855.17
1855.65
1019.63
385.07
565.00
880.72
915.21
597.79
833.88
717.60
812.33
980.18
918.70
827.09
838.85
820.19
525.12
355.42
914.69
1381.96
1514.97
895.01
324.64
477.53
499.29
562.00
534.00
487.38
446.66
636.94
1577.57
2745.48
2613.08
1434.67
314.19
1028.65
1842.53
1338.97
662.96
446.64
298.40
317.30
519.49
597.69
540.83
382.99
1387.63
1845.97
921.82
490.96
792.46
726.46
726.39
785.71
674.64
592.50
551.69
911.34
548.82
583.43
565.03
458.70
475.12
447.84
531.30
636.74
632.40
748.40
575.43
508.24
487.14
644.44
333.63
362.81
598.22
852.58
926.68
750.68
485.73
397.11
537.18
640.07
470.08
464.49
801.33
785.62
632.02
468.23
440.33
271.08
512.28
648.43
698.25
641.65
653.55
2758.45
604.95
525.82
415.46
377.26
378.73
476.06
480.03
528.40
461.49
463.98
427.23
446.57
1039.15
763.36
745.15
813.80
759.86
596.07
403.33
375.19
853.86
938.69
775.91
446.70
426.15
516.88
368.16
463.87
660.17
779.93
629.99
695.23
816.83
710.41
432.19
395.70
350.13
2830.22
396.04
549.64
612.69
646.54
557.19
471.05
444.32
396.31
365.68
417.56
434.42
436.49
771.39
501.29
595.98
507.62
444.03
305.26
321.08
318.36
459.13
411.68
541.26
722.29
884.98
938.77
654.38
421.73
398.11
570.23
559.95
642.70
296.87
359.02
554.99
787.54
1266.01
1798.95
2092.94
1975.81
948.74
426.27
353.69
1163.88
1372.54
1602.47
910.20
454.27
352.24
815.70
276.06
554.54
961.10
866.74
367.62
728.61
698.94
461.53
333.25
382.66
341.39
422.50
680.42
479.42
626.74
849.14
836.98
486.90
364.04
718.43
348.65
392.32
278.47
474.26
681.19
831.18
542.43
439.40
611.52
780.57
1222.79
1431.52
721.02
442.55
1050.36
833.78
432.40
1116.75
499.99
572.38
473.10
474.86
339.48
670.20
925.43
496.97
418.40
558.30
532.25
432.10
660.84
691.10
803.89
736.18
480.51
338.28
378.11
312.30
460.22
564.43
567.78
358.78
2883.10
413.02
774.84
1224.95
1545.31
1424.65
817.29
364.71
617.93
282.66
350.81
664.34
2668.41
869.16
533.28
416.21
353.78
499.32
652.38
588.18
394.53
553.14
879.80
896.75
397.54
865.51
824.04
1019.81
726.81
369.52
838.39
1302.41
565.01
502.69
754.38
667.53
554.22
368.27
492.76
402.50
398.84
380.71
414.46
429.71
658.80
903.75
811.50
603.05
707.66
441.91
2790.43
482.68
387.47
403.19
358.18
403.98
419.74
388.90
499.51
519.87
725.46
1062.88
1284.73
1463.05
464.03
376.46
704.34
670.37
310.08
403.27
694.84
719.39
449.72
315.05
304.41
2689.42
366.98
670.18
769.90
321.61
416.34
526.28
414.37
408.46
411.43
768.01
1096.79
1223.26
1658.83
1483.49
896.22
437.53
374.28
381.79
428.02
366.31
383.09
696.62
980.67
758.39
744.48
545.25
694.28
709.03
663.47
609.05
398.41
386.05
325.18
378.41
674.88
1232.67
1916.97
2628.78
2511.42
1362.49
470.93
2013.15
2500.39
2010.91
1604.78
923.66
287.50
432.64
715.69
525.34
537.83
430.72
415.41
398.70
446.50
423.41
570.07
663.73
793.13
675.56
557.51
705.24
481.04
430.41
388.96
393.30
415.07
320.79
281.38
396.65
438.75
510.49
476.71
2738.66
625.41
819.97
881.47
1027.84
904.72
501.50
387.96
636.30
289.08
432.00
548.68
489.04
1034.38
523.63
405.56
402.89
505.83
639.31
512.43
495.59
448.02
492.68
476.17
407.24
412.93
621.97
515.01
614.24
503.83
396.18
1091.41
891.83
375.34
484.42
545.28
675.20
878.15
2687.29
829.84
857.61
684.37
855.47
799.16
303.51
909.72
1272.55
1275.29
963.88
636.58
614.04
548.12
518.05
596.68
585.27
515.23
424.94
383.64
452.38
406.64
520.24
472.29
409.76
2646.52
493.86
507.90
490.01
515.33
603.76
676.79
689.32
657.28
529.31
371.47
397.25
1020.92
2530.81
3178.52
2474.98
580.07
1138.87
2001.89
2026.44
1419.95
610.59
299.93
418.80
1762.28
827.30
1097.87
755.15
574.70
340.90
451.58
313.26
408.09
588.67
636.98
294.73
554.14
687.16
563.34
455.02
457.16
339.52
337.10
629.27
526.52
400.72
313.30
352.05
561.19
2644.92
859.48
860.62
674.16
472.90
564.50
724.29
803.59
629.17
453.71
402.06
436.75
938.04
1491.27
467.47
342.94
547.29
788.77
987.90
1090.17
1160.71
899.87
599.81
425.34
444.24
2664.73
390.40
283.29
420.84
599.09
313.72
339.77
401.35
344.18
292.33
416.01
444.11
407.43
1086.48
691.59
676.56
437.20
374.77
325.23
486.63
368.37
482.51
475.67
471.12
337.31
303.45
691.10
614.44
507.23
392.54
393.87
402.86
399.88
563.47
644.00
641.78
461.97
497.64
2649.92
516.70
427.94
686.14
1046.92
1369.33
1427.68
1086.13
1135.82
953.86
541.49
706.38
2465.06
2470.81
1965.70
1036.42
412.53
413.06
414.43
390.22
478.21
539.60
630.81
716.58
1254.42
603.94
497.27
394.09
400.98
578.15
654.83
507.28
322.60
508.86
662.44
658.05
433.94
634.95
791.13
709.65
626.33
345.10
522.81
669.68
582.14
366.80
417.82
461.56
431.86
2510.12
660.01
514.69
362.00
324.04
433.76
360.57
499.45
573.99
673.10
1227.09
2041.73
2454.48
2175.78
877.06
516.19
1281.92
1666.75
1720.77
1262.84
814.86
347.24
340.27
475.28
1899.07
917.92
715.66
443.04
386.80
458.03
500.47
620.71
716.29
718.76
663.53
421.32
334.22
596.70
580.50
551.27
500.00
370.07
384.36
337.55
454.59
506.24
550.34
365.88
462.45
429.99
380.60
410.59
498.30
606.54
657.83
874.97
889.01
809.77
515.73
431.23
338.96
393.78
2623.03
510.60
806.00
968.60
1131.28
957.99
827.92
711.02
470.64
546.14
1203.12
1036.68
398.62
616.02
375.42
426.76
347.25
405.41
420.98
467.05
484.19
537.67
544.21
617.17
554.75
2564.83
618.58
632.94
959.22
1516.62
1235.06
558.11
483.42
489.90
522.35
844.83
944.05
575.98
1151.38
2466.07
2718.29
1592.97
616.24
368.79
355.16
395.72
406.02
434.43
655.22
735.50
988.00
1081.25
995.34
689.92
343.27
593.42
864.15
544.76
327.21
693.93
898.60
1092.19
2045.69
881.21
1099.61
1172.50
1150.63
1045.54
567.43
556.94
621.27
457.50
409.34
651.45
769.63
345.56
667.22
1002.66
1080.89
825.08
329.11
392.21
459.83
488.20
602.84
597.38
2407.19
501.43
354.18
343.14
675.24
811.97
1141.97
726.74
430.68
755.23
1215.97
856.09
343.50
657.80
741.09
800.78
660.33
737.45
589.06
687.39
509.16
403.11
421.26
396.40
446.86
2446.08
541.71
455.49
379.53
416.63
482.99
468.05
429.38
400.66
367.80
425.88
346.37
344.85
887.44
437.59
507.32
527.66
505.97
457.74
451.89
468.43
540.81
652.11
587.35
630.76
898.09
1182.00
830.67
421.84
383.10
620.17
651.58
328.34
565.57
674.76
639.69
564.87
363.42
2417.63
704.04
977.74
1293.27
1182.05
561.53
606.05
1120.50
1136.02
978.52
309.42
580.65
1745.61
692.44
450.76
319.06
583.69
1228.18
1727.25
2077.74
1325.60
453.44
656.80
1326.44
1780.65
914.02
471.18
372.57
605.39
599.56
731.52
884.44
934.33
773.93
440.87
291.21
2360.02
616.37
538.65
312.89
277.67
565.91
752.77
721.04
487.66
384.28
372.20
349.88
415.23
876.39
423.96
403.61
466.61
625.56
713.76
592.11
602.84
502.10
609.93
637.14
571.24
557.08
841.53
874.79
1348.41
1947.19
1788.99
700.92
396.13
1188.94
1286.19
832.74
474.45
388.20
648.27
808.84
804.32
822.41
636.00
582.44
563.59
554.66
854.35
846.60
432.54
773.52
3304.96
687.84
258.99
438.50
587.35
723.53
464.21
622.92
771.11
441.83
701.91
847.58
736.77
840.85
323.63
523.19
458.24
418.28
382.33
472.78
355.26
354.34
370.66
473.99
491.35
433.09
747.44
703.00
954.90
1295.42
1384.25
959.74
449.86
627.56
885.54
749.51
340.79
632.36
1593.94
491.21
360.36
603.42
853.18
900.56
790.25
794.46
681.89
411.72
432.53
370.95
384.27
682.34
527.73
523.33
475.24
358.31
580.33
470.89
488.36
959.81
989.99
678.19
464.96
495.84
607.39
331.03
411.67
398.35
450.27
460.12
505.96
397.55
343.71
447.02
445.71
651.92
2810.30
2133.80
1240.56
413.47
1248.13
1455.59
625.35
573.13
567.64
410.59
799.78
640.68
1526.37
370.51
737.02
967.68
926.05
789.10
619.74
485.94
461.57
310.56
308.53
407.34
381.67
453.62
446.41
432.08
497.41
505.79
510.18
555.31
560.99
653.53
664.75
571.33
590.35
2392.65
368.48
368.05
426.99
398.27
510.16
535.35
545.97
540.85
355.82
445.80
380.60
499.52
1157.85
776.31
733.02
643.70
511.11
401.45
384.35
382.33
436.77
506.94
772.00
864.44
1060.33
1204.08
724.88
491.44
470.58
663.20
340.29
423.81
355.79
341.15
677.46
953.29
1026.44
1350.47
452.69
508.65
955.24
911.40
372.26
587.03
1108.75
1306.66
1455.17
1136.84
775.08
454.38
396.27
425.28
546.98
413.21
308.69
319.04
382.64
665.33
429.43
470.07
688.48
2392.49
1114.40
991.26
377.38
274.05
430.56
420.45
708.05
728.63
512.00
420.67
292.38
622.34
1149.87
1143.14
718.87
355.67
590.99
961.53
936.09
671.86
404.01
565.47
398.98
444.63
1490.25
647.20
812.12
797.73
695.48
302.76
418.38
368.87
561.28
831.10
946.89
900.18
796.99
671.32
917.68
1236.43
1197.08
783.81
568.84
1670.51
2013.46
1410.55
780.55
583.25
2221.84
539.47
971.18
1289.10
896.69
407.63
452.20
440.20
425.82
435.74
697.75
993.60
1176.96
1410.13
1310.15
740.52
467.11
296.09
743.46
828.87
471.57
367.50
588.55
762.98
630.94
1085.02
673.35
1027.43
1079.55
554.09
365.93
655.42
697.78
549.67
476.32
703.93
751.39
1958.83
501.72
335.69
430.94
334.24
426.72
542.49
685.34
572.07
673.60
559.38
419.30
484.05
619.93
548.74
281.42
491.46
402.52
587.11
814.18
587.81
400.64
625.89
809.26
1113.34
1343.61
1118.49
902.36
385.01
1396.41
2157.51
1741.93
474.27
589.94
835.35
765.52
562.76
1573.89
491.69
560.49
665.03
429.00
554.94
765.67
831.19
680.54
363.81
548.52
527.23
577.62
950.02
599.26
510.13
570.31
461.13
661.40
493.91
612.78
618.66
691.99
647.20
818.31
792.47
731.99
440.66
414.16
358.97
421.29
453.47
329.05
514.84
666.59
640.54
667.54
724.32
2213.98
727.04
617.12
590.95
394.90
979.03
748.74
391.72
530.45
439.38
696.45
1076.34
1368.61
1106.06
446.83
295.10
343.27
474.40
568.23
1033.62
1426.63
1588.79
1471.19
562.87
903.13
1938.18
1716.97
901.18
314.88
568.22
697.96
533.77
391.85
401.05
538.66
416.31
641.29
813.77
367.38
323.24
332.66
544.79
805.44
970.46
931.13
560.46
317.51
775.82
682.64
281.69
568.12
631.72
968.65
1379.27
1592.45
1167.11
469.09
608.20
670.99
393.78
396.97
409.05
922.81
474.66
453.66
292.53
463.11
645.42
822.47
857.52
819.68
352.00
927.30
1019.49
501.90
675.80
419.79
540.20
808.00
991.22
991.48
1014.96
1070.20
779.50
634.57
499.15
409.90
2072.54
469.17
401.48
465.64
487.14
456.23
285.79
385.73
424.23
466.63
294.45
349.74
477.15
1116.22
450.01
326.97
454.43
652.04
999.89
1031.04
533.36
343.26
569.51
913.05
897.01
854.03
680.80
543.15
578.90
646.58
348.70
807.70
1316.34
1216.62
1188.84
541.28
342.55
522.36
1006.31
672.03
711.88
804.25
971.72
1045.21
1085.65
776.79
607.77
461.41
399.17
335.63
1960.53
443.75
298.83
581.74
845.34
1141.42
968.35
697.86
445.47
427.32
432.31
350.72
440.61
443.81
523.91
599.27
587.21
529.85
300.04
348.45
565.16
311.93
408.24
385.25
461.71
470.63
564.25
574.36
1006.94
1868.57
2255.76
1720.44
522.22
999.47
1550.31
1479.43
1221.33
3225.28
340.76
505.19
724.72
609.61
682.88
563.67
487.98
399.50
481.85
736.09
709.30
756.37
793.02
730.19
743.42
548.38
336.36
286.49
357.42
614.07
651.76
698.02
565.65
426.57
1863.68
436.22
501.99
532.61
588.84
499.43
629.63
703.25
479.56
660.74
779.64
241.09
409.54
1293.79
727.36
861.63
977.18
1157.26
712.58
549.58
289.76
399.65
546.05
498.48
288.20
2981.93
1932.73
1847.15
727.17
477.81
854.15
1020.33
976.07
965.10
922.40
666.51
328.53
363.64
610.84
411.45
509.71
779.32
856.80
583.96
423.77
352.04
488.97
785.17
391.60
410.38
1698.14
600.18
605.96
685.38
561.17
624.09
336.92
435.05
367.24
395.21
344.92
539.08
724.01
1195.28
625.10
464.30
414.53
543.13
487.44
402.57
381.26
447.17
555.56
1121.20
1877.83
2137.05
1337.13
475.98
792.07
544.07
464.85
569.20
529.04
317.80
604.05
637.54
502.58
297.89
371.81
278.30
279.13
284.01
473.58
429.17
489.38
382.33
390.58
431.25
435.85
448.97
2153.21
1386.78
1451.35
1114.09
576.72
536.78
844.49
402.06
515.77
613.54
689.15
888.13
1935.24
414.57
432.73
376.66
650.88
505.57
294.10
413.85
435.01
437.31
742.65
842.16
833.39
1456.83
1165.58
929.84
794.66
491.54
712.19
587.78
503.11
762.50
826.32
558.70
298.29
1894.43
388.37
399.08
293.20
372.33
543.08
437.12
530.27
263.63
448.14
369.37
598.56
1117.94
1458.95
570.08
635.88
768.54
392.72
581.17
937.31
1112.78
583.96
495.02
844.14
1082.67
1808.60
406.12
748.39
930.39
1014.16
949.12
854.23
708.19
777.83
659.77
663.77
505.52
552.51
623.42
590.72
865.78
1298.05
1658.98
1606.87
1042.30
392.48
475.24
598.00
569.12
524.99
835.88
475.37
1229.99
2174.91
2450.65
1855.50
953.22
372.94
424.89
706.07
901.22
1314.99
1765.10
1354.67
484.06
578.34
1331.01
1437.50
849.94
368.07
571.27
490.35
503.85
1528.86
416.41
297.04
458.85
595.45
645.02
652.35
657.02
613.95
704.92
872.02
770.14
502.82
889.53
364.86
363.92
487.68
479.09
487.72
420.45
420.64
362.21
637.63
744.03
746.23
726.73
777.48
384.28
279.21
546.52
910.58
1365.17
1595.43
1357.63
745.23
313.95
520.93
1052.92
1933.50
1448.41
622.92
425.89
471.45
442.27
406.09
510.74
550.07
621.08
547.26
462.70
1545.92
935.62
1009.69
803.95
395.33
716.68
760.10
807.05
696.48
618.60
270.70
482.27
306.37
654.91
622.59
422.78
787.05
862.16
864.74
661.39
659.54
307.90
466.62
320.09
723.14
1966.99
603.92
487.04
387.54
428.00
492.80
685.31
576.43
652.56
288.65
384.08
396.68
433.00
923.32
425.36
408.51
515.50
696.88
830.04
601.29
369.26
355.69
307.50
309.52
368.48
351.03
659.31
482.99
662.31
520.74
761.58
875.06
1005.11
1355.84
1088.40
613.39
502.79
371.88
992.84
246.92
418.52
740.01
1121.26
782.15
309.69
437.58
307.10
445.59
362.25
391.52
484.42
742.03
688.00
864.78
840.02
854.54
607.60
330.73
442.31
333.92
305.99
472.46
802.09
1830.96
715.81
279.90
672.65
541.30
580.39
583.21
296.05
568.26
717.46
639.88
303.26
454.55
1042.90
772.75
776.79
889.60
719.84
516.68
337.19
350.79
532.93
678.51
1133.36
830.16
642.51
449.39
394.54
342.90
1247.53
1637.13
1468.43
721.72
341.28
484.95
345.63
387.11
261.81
629.56
643.20
772.04
828.83
896.50
1059.09
936.36
924.31
491.51
346.02
743.15
538.96
865.80
1266.12
639.38
367.46
408.78
495.13
576.30
594.39
649.90
759.53
639.67
336.93
464.31
1652.79
373.91
263.02
498.26
749.62
1268.29
1665.45
1178.88
592.73
751.45
2304.51
2549.11
1745.47
1052.94
1839.32
1265.06
764.17
803.57
983.96
773.96
400.57
363.31
420.57
291.36
407.29
297.18
683.78
1398.85
2292.99
2388.86
1649.25
631.24
268.27
563.12
870.00
897.77
946.91
376.02
421.02
270.10
328.27
780.25
1052.62
673.68
396.15
761.02
851.22
743.26
737.00
847.28
695.81
680.35
789.80
876.15
907.56
896.75
664.43
249.06
280.15
610.83
469.98
2427.80
1706.02
749.91
589.28
279.67
539.93
319.35
406.81
324.55
262.88
378.62
283.14
437.07
1054.42
454.10
356.62
471.45
391.53
375.15
368.50
324.56
290.59
344.37
254.07
322.01
1565.45
1353.73
1743.98
1560.71
770.44
469.04
278.04
1370.76
1825.29
973.59
3343.64
4207.77
4242.03
3638.10
1386.19
700.77
2225.63
2480.99
2302.52
2118.81
1313.80
844.08
665.22
881.68
402.27
251.00
488.00
638.18
607.94
483.56
281.18
404.91
369.16
313.69
337.04
443.29
644.94
576.49
758.76
723.30
701.19
691.15
790.58
806.63
438.65
336.16
359.07
343.72
1368.83
569.07
465.14
484.93
644.31
663.54
583.24
439.22
442.26
602.99
861.19
838.76
1009.20
1296.88
383.07
518.36
971.21
482.63
374.74
445.40
388.73
434.44
549.75
451.30
483.51
472.82
592.27
491.39
364.66
285.60
285.67
291.80
679.16
792.20
778.67
640.15
434.30
436.17
1421.98
509.83
526.89
496.53
506.14
413.58
358.37
370.84
472.27
500.67
370.87
413.22
465.77
962.58
356.68
463.41
632.61
762.18
802.24
686.45
493.61
290.35
285.35
458.88
675.19
905.10
1390.89
1022.10
368.84
625.67
726.93
676.03
289.15
480.34
621.86
593.03
629.61
699.31
1465.64
662.49
455.76
185.88
291.81
333.96
357.40
533.02
585.52
450.43
462.13
407.66
467.34
1437.21
1467.60
1602.20
1338.37
787.34
555.40
333.35
880.43
1054.92
735.52
394.20
329.60
959.13
668.91
879.46
1019.35
955.39
765.62
685.00
836.82
671.50
341.54
458.51
916.61
1076.49
602.67
643.36
860.54
740.44
636.38
625.35
641.98
897.97
2017.70
1751.86
795.25
332.82
839.87
220.65
794.39
1586.51
1961.60
1719.83
791.07
409.19
553.16
578.27
645.07
665.23
1716.58
327.62
438.03
460.00
787.54
958.87
944.20
746.55
387.85
327.69
278.92
449.60
481.61
514.45
359.30
339.78
371.57
445.72
465.95
371.02
400.37
450.21
548.77
717.81
768.17
896.16
781.30
283.26
409.73
743.37
664.79
318.88
254.60
216.83
282.66
441.93
504.46
504.75
3209.57
514.05
311.37
202.46
302.16
493.67
428.08
348.19
477.60
918.21
1269.42
1160.27
991.91
849.67
806.60
844.53
750.87
621.41
342.92
400.50
634.49
290.30
429.52
299.21
939.56
3575.72
1601.76
374.12
1201.10
2112.27
2127.81
1805.13
1382.96
749.20
580.18
375.36
701.84
497.28
317.29
343.82
491.78
679.69
596.38
461.40
742.85
406.85
366.47
790.05
1261.58
923.84
385.09
331.39
467.81
569.05
589.62
498.57
460.10
379.17
359.18
472.76
538.65
357.32
1682.64
542.13
594.58
678.09
509.36
318.68
498.17
459.32
928.40
1371.74
1308.71
519.06
602.57
983.48
446.62
617.97
500.73
351.96
389.65
445.33
435.90
419.70
538.85
556.58
625.52
1771.37
519.70
546.13
469.00
403.48
500.39
406.89
371.00
525.50
614.69
505.92
362.67
453.23
698.95
537.66
522.58
543.70
393.42
473.42
442.69
375.36
521.25
578.69
556.45
489.16
357.44
427.17
394.95
501.36
551.48
716.17
862.29
943.16
848.00
508.46
368.35
477.92
716.13
1394.04
636.29
470.03
292.75
678.92
767.30
437.83
732.68
807.83
863.36
683.31
391.86
304.26
979.32
439.86
645.42
561.16
284.95
678.21
1011.08
1212.32
499.48
360.28
584.82
445.60
556.60
807.55
902.09
859.21
792.44
718.72
736.18
684.67
782.18
786.86
459.94
319.01
688.37
2017.48
272.91
368.72
536.41
495.19
330.25
462.47
408.82
473.67
616.85
489.43
373.59
617.92
1886.58
1653.49
537.08
489.84
1310.31
1077.43
329.19
784.50
1055.41
1446.74
1530.47
632.98
329.39
603.06
530.33
640.01
385.25
312.21
394.62
366.54
281.82
363.04
702.78
842.36
1748.25
287.76
426.05
313.74
736.16
1136.72
1168.48
792.19
298.46
993.32
1116.69
391.32
2225.40
1467.71
1179.09
725.22
523.95
455.26
674.56
618.04
362.39
316.05
367.28
272.13
3356.50
538.52
577.11
463.23
366.43
517.70
304.00
720.34
368.98
318.08
691.77
752.96
790.85
1224.12
498.29
545.04
501.89
296.06
485.25
945.75
714.48
448.03
273.34
729.64
712.71
407.44
577.44
599.20
758.00
725.16
758.01
747.68
612.15
521.64
564.72
480.92
432.07
556.58
3079.19
1197.40
1244.31
912.37
330.16
754.33
880.85
759.63
478.75
443.10
336.38
521.29
623.72
723.87
733.65
591.14
583.69
382.95
352.59
325.14
248.96
398.72
851.64
1392.83
1651.22
2339.44
1051.49
764.08
703.99
499.86
274.98
698.10
1113.82
1299.21
992.77
1043.34
982.34
571.02
452.95
593.44
534.48
580.14
408.47
353.61
404.38
651.25
516.84
414.47
466.98
594.03
841.63
630.08
761.09
1022.46
967.36
614.91
310.05
371.43
366.50
376.55
440.24
382.44
3069.01
1036.58
1026.63
696.43
459.25
367.96
327.58
413.16
405.87
405.01
273.19
403.26
768.86
1728.96
1529.25
1172.07
750.14
462.59
646.80
733.87
335.11
356.51
305.48
265.37
393.45
1133.27
1037.17
1119.19
565.47
386.68
985.64
1274.80
809.79
351.21
705.37
949.03
847.51
1107.62
437.02
336.51
363.05
436.03
652.78
731.25
432.72
383.84
731.70
681.63
339.55
362.01
572.60
447.95
707.03
1236.22
1456.25
1032.44
281.44
588.95
375.85
705.00
815.20
608.31
754.77
362.24
330.26
472.17
715.81
582.01
498.15
537.16
635.70
610.49
586.19
392.16
301.78
514.22
405.63
288.99
486.46
659.47
641.66
455.24
608.48
825.71
513.91
502.04
378.42
497.73
997.69
1059.76
714.16
321.01
356.95
294.85
458.00
595.32
466.39
592.63
508.05
488.94
1758.24
813.83
689.77
552.51
1638.08
1795.50
930.91
366.95
421.57
514.77
444.90
506.81
3143.56
582.96
664.02
698.94
807.69
793.60
737.96
582.49
416.64
484.37
369.55
532.31
655.40
1399.97
519.75
680.00
459.84
426.90
781.24
999.86
906.35
868.51
840.91
734.51
676.48
569.03
491.47
383.51
569.12
637.73
329.67
374.12
523.51
566.72
661.98
411.29
368.35
374.74
3093.49
890.00
1138.16
639.13
421.23
1038.09
778.89
387.83
381.33
645.68
667.69
620.54
373.65
481.89
373.50
498.76
784.81
818.90
820.56
923.70
1076.32
733.26
477.55
1144.22
850.94
1009.73
537.78
559.70
460.31
506.17
647.82
632.77
410.85
350.24
292.44
404.82
560.26
814.67
1215.10
696.30
393.13
1074.76
899.42
509.78
325.20
491.91
403.66
527.29
510.25
413.02
1684.84
431.14
436.21
532.14
613.74
673.09
663.88
701.31
568.50
368.92
309.36
330.09
447.30
907.22
314.45
531.00
698.49
554.29
623.60
668.88
794.27
818.15
816.17
401.01
393.50
353.97
416.24
464.05
474.85
520.37
623.97
713.80
513.93
392.02
656.26
691.95
621.44
942.51
3116.71
2487.21
2723.85
1575.46
591.14
2117.04
2847.41
2833.48
1905.99
949.07
296.28
448.72
553.02
386.51
381.22
376.19
298.18
383.11
349.82
463.56
464.92
477.42
654.06
655.67
3109.08
712.74
739.83
877.57
935.10
924.48
1036.38
967.79
1100.17
1138.24
428.24
779.69
4075.82
1046.87
510.67
421.52
438.89
338.85
330.16
478.23
597.37
540.65
453.52
514.99
503.63
1005.96
365.37
399.44
406.56
390.32
574.83
675.50
638.06
472.88
394.25
427.29
497.82
557.68
738.87
740.63
869.73
1136.80
1492.17
1811.00
1447.76
474.18
1152.80
2217.67
2273.61
1470.74
383.46
627.74
576.47
787.53
907.41
899.95
897.58
467.89
375.72
369.01
234.96
332.71
570.20
322.33
339.89
380.59
431.77
641.34
940.43
989.25
777.53
342.46
352.39
364.64
279.63
327.79
322.54
329.74
349.55
558.24
599.48
515.21
619.63
603.92
414.10
494.23
855.52
3014.00
1205.06
860.27
602.58
599.24
886.29
777.54
482.03
454.46
922.51
1384.71
1234.91
394.16
631.84
725.64
680.59
361.87
1460.02
1458.91
446.44
824.51
782.78
403.20
380.65
433.49
946.24
914.80
839.43
629.27
427.30
381.36
543.03
374.25
483.79
1166.47
2085.84
2570.42
2578.64
505.02
932.66
1623.21
1433.88
709.00
326.33
416.88
582.40
589.95
587.47
385.52
1693.33
331.93
278.60
305.06
342.82
521.78
629.32
662.06
610.28
527.74
441.32
453.64
350.51
592.23
312.35
724.45
974.08
963.66
852.69
890.19
735.35
630.44
342.10
505.91
327.51
275.11
450.86
345.03
427.86
752.65
979.56
703.62
355.97
361.03
346.46
347.77
454.11
376.42
3018.00
438.58
483.03
539.71
607.08
586.77
412.71
350.67
315.40
426.83
621.33
669.58
507.90
1098.96
625.77
706.55
753.99
741.87
673.27
396.04
376.58
874.10
591.57
405.46
842.24
1112.02
1095.60
527.38
312.53
406.45
447.81
654.14
751.50
757.34
470.62
271.82
319.23
738.21
1385.39
426.90
611.77
815.96
741.00
478.45
321.01
386.15
409.99
596.50
616.76
504.29
364.90
391.26
232.93
411.15
877.19
1355.76
1434.70
1027.82
384.69
668.37
1025.49
911.63
354.40
668.21
545.32
757.21
883.01
702.35
401.77
393.73
459.35
412.13
410.99
383.73
497.81
509.03
740.36
925.31
983.23
789.58
663.41
382.73
1151.18
682.39
358.87
355.99
378.96
423.77
1086.64
748.05
595.17
521.74
378.99
776.01
935.11
503.29
341.98
473.61
812.61
895.42
775.23
452.55
1131.78
1284.58
408.46
679.29
652.85
621.39
692.16
607.83
760.30
848.98
823.40
886.55
339.82
330.67
420.36
599.21
681.17
529.70
528.54
615.79
681.72
537.00
309.79
511.35
493.36
488.89
442.15
457.03
494.12
429.31
397.65
412.39
433.68
572.77
716.77
615.15
620.01
749.95
691.48
651.04
782.79
836.66
851.26
543.99
285.24
703.47
408.59
423.26
479.40
2772.85
537.54
501.55
490.66
541.73
465.95
515.63
509.29
436.05
823.42
532.15
378.88
559.03
1030.32
484.37
566.69
581.34
581.20
444.67
460.69
287.32
624.42
486.14
488.82
418.97
537.02
502.00
842.90
1303.90
935.53
682.74
547.60
465.03
474.73
622.44
366.34
337.48
350.13
3047.60
287.79
360.53
400.96
600.27
611.01
514.64
391.32
387.97
450.21
496.44
395.65
430.69
1046.39
617.01
487.14
683.92
674.12
568.54
382.47
437.42
436.77
549.37
524.47
337.32
354.62
599.04
831.45
922.11
977.76
372.30
1218.96
564.20
748.57
956.65
656.62
461.27
396.05
1810.98
466.11
547.82
404.62
331.49
314.12
353.33
369.61
476.25
546.19
456.30
461.25
342.50
560.37
570.49
739.47
636.73
477.30
360.42
310.28
364.05
334.20
367.80
735.11
1016.60
1045.43
938.24
512.34
366.85
421.85
235.55
396.92
339.11
359.73
365.43
333.69
490.72
283.71
910.90
491.33
667.23
683.26
730.08
844.72
715.45
558.63
528.44
709.19
1082.45
1009.65
644.70
436.85
1391.10
1522.13
1154.20
1051.68
511.79
383.95
726.90
1001.48
489.11
486.93
3727.90
367.21
636.37
525.23
752.12
1035.66
873.05
484.52
651.08
292.96
555.41
749.80
733.90
902.16
677.79
630.09
599.23
507.08
392.08
362.42
423.27
622.16
653.23
651.28
479.00
412.33
456.55
330.98
394.57
685.36
295.18
591.94
778.17
696.01
614.65
972.41
1357.06
1134.33
1729.28
944.70
1385.74
1553.58
646.43
615.00
1018.20
1056.97
522.11
1292.47
1651.26
577.63
565.95
778.20
492.35
374.40
874.48
337.04
744.42
1724.65
3012.11
4261.91
3723.81
2149.38
603.57
2127.91
2779.98
2844.32
2020.56
983.42
525.66
775.80
576.28
402.12
288.84
1864.32
332.45
315.13
300.16
337.84
338.89
505.91
630.25
802.91
872.75
698.49
507.54
384.51
501.50
595.42
1208.08
1237.91
892.27
645.53
439.91
353.28
705.41
1379.55
2210.24
1380.42
665.84
766.14
1028.59
899.46
796.71
673.10
522.04
621.03
899.66
1171.24
875.66
495.32
2067.13
919.72
328.34
437.12
396.81
389.39
373.92
673.00
591.75
544.78
517.37
433.84
478.17
981.92
851.18
314.92
555.20
1063.41
1398.23
1271.28
643.40
309.99
382.79
281.91
412.79
885.29
394.69
407.45
521.08
449.52
515.50
520.51
449.12
491.27
471.41
479.66
514.39
554.75
857.35
1027.96
1203.88
833.20
372.51
469.07
525.11
418.50
353.79
438.11
294.93
493.50
2676.84
475.91
465.97
503.18
606.36
542.29
584.14
536.37
509.11
512.09
491.89
444.79
475.28
1141.52
632.78
384.14
328.39
564.42
280.99
360.90
405.83
588.73
692.97
721.47
704.28
682.75
747.01
594.71
525.64
483.14
312.69
470.20
612.23
416.65
416.80
563.15
619.30
959.86
2970.98
2251.47
2624.37
2458.00
1434.85
432.55
1010.27
1464.14
1434.59
982.99
1097.61
828.81
664.49
616.60
449.70
784.27
1498.64
1457.91
616.12
416.59
971.50
1197.94
483.75
1572.18
2526.72
2325.12
637.22
1411.23
1767.50
1715.49
1158.36
525.97
303.13
348.77
380.37
1687.47
453.44
462.78
406.36
404.04
383.22
428.91
531.28
438.86
386.96
420.08
579.22
768.12
1027.52
1000.31
842.87
577.23
319.90
702.49
1420.23
1006.77
336.98
485.84
615.59
711.39
1091.66
703.82
889.63
904.68
562.76
454.57
420.85
309.69
323.50
403.92
540.19
383.63
295.76
541.80
490.03
497.84
513.08
594.97
571.24
563.77
428.96
585.96
401.15
361.62
374.04
2651.74
1030.45
1026.73
726.81
686.28
463.41
408.18
344.58
257.49
385.35
362.36
304.25
425.66
518.11
367.44
409.86
544.28
507.30
465.06
517.70
711.91
1004.57
1363.01
1699.26
1949.60
2729.21
2055.58
1003.38
800.05
2447.60
3241.78
2034.66
801.37
487.73
349.43
407.26
441.44
613.99
471.40
481.01
423.32
340.88
349.84
320.60
440.80
416.11
447.47
467.34
467.53
2650.32
557.42
440.33
515.33
683.38
792.05
1031.65
806.79
385.52
314.62
377.03
324.98
296.38
879.84
500.82
401.50
474.18
421.78
443.68
490.00
473.83
424.45
393.11
489.08
447.70
590.93
660.16
362.70
350.80
632.31
677.79
713.71
614.60
735.80
544.74
482.40
375.54
446.25
360.54
478.44
376.76
382.61
371.60
369.00
389.04
388.03
442.26
407.63
439.45
545.72
514.46
2710.61
698.80
488.57
333.04
365.04
324.24
280.80
498.01
601.39
612.57
651.92
435.75
359.71
777.07
411.10
618.68
1153.74
1061.55
491.75
255.79
502.29
768.06
846.34
515.90
399.24
2759.71
328.80
355.80
555.35
737.05
845.32
620.45
537.34
1438.80
739.94
326.85
454.67
536.39
534.39
358.63
447.78
451.39
392.75
408.53
457.24
543.76
629.72
655.47
528.08
712.71
773.99
724.16
644.68
424.57
366.73
637.63
335.84
381.94
306.15
524.03
883.31
537.96
372.71
2662.98
521.96
660.44
954.43
1007.87
747.40
530.73
434.89
1102.55
1160.44
665.81
382.31
243.41
495.21
524.67
564.49
635.83
657.10
527.44
404.98
432.30
457.50
504.56
449.11
503.93
2756.64
840.19
654.67
494.73
393.78
330.95
542.84
574.09
377.47
474.69
599.58
433.34
958.57
1697.03
652.40
1131.33
1215.77
404.44
1304.27
1957.39
1885.90
1084.05
507.79
331.11
511.50
667.69
663.70
404.23
331.18
295.42
324.40
367.29
445.41
533.49
547.51
644.66
656.15
2582.54
676.62
691.82
516.94
402.45
300.33
383.30
414.37
449.41
355.25
435.90
466.51
261.27
925.88
534.48
486.49
514.74
532.19
526.74
480.82
488.10
503.92
465.18
479.60
483.29
502.31
722.14
637.84
516.23
499.88
497.50
527.42
547.94
557.47
602.71
947.25
1203.77
1281.29
1152.47
431.64
306.54
678.73
717.61
364.25
378.57
383.53
364.51
495.45
566.47
623.93
626.61
700.15
522.92
503.54
492.12
437.12
318.66
345.78
343.17
356.24
505.39
396.28
396.60
507.79
780.90
692.86
782.45
803.15
584.31
478.33
377.68
298.25
378.62
438.61
497.30
790.94
2588.70
982.30
849.05
636.99
373.03
566.55
1234.13
916.23
312.29
444.43
560.99
746.04
1188.51
2049.90
2240.47
1435.71
402.35
1241.46
1907.23
1356.84
552.08
348.01
332.32
391.35
1872.56
649.78
1164.46
1755.16
1653.04
1419.59
1323.81
849.31
425.16
1409.60
1947.80
1388.51
467.02
499.51
793.00
679.17
514.19
429.47
354.85
654.37
819.83
446.07
347.51
479.04
805.49
345.30
533.87
820.35
800.98
1191.73
1179.07
484.64
753.98
723.43
360.82
341.06
3140.55
626.57
395.89
417.68
559.04
488.32
422.96
604.78
732.19
715.91
656.75
389.50
405.29
849.84
399.13
514.66
368.08
1041.78
1037.46
364.47
380.51
328.58
542.93
1500.14
1821.97
1185.21
841.57
635.12
455.84
412.70
349.19
349.72
357.99
367.24
367.51
347.04
402.26
466.54
894.95
448.58
457.13
515.29
515.06
401.56
517.44
582.86
466.62
389.91
531.45
471.59
521.80
680.57
488.12
474.77
452.35
329.21
340.51
516.53
661.22
773.42
663.37
315.48
399.36
320.70
587.81
665.14
670.08
644.53
550.11
435.69
532.86
478.35
433.84
527.36
523.81
515.32
2569.97
417.64
400.23
502.79
525.21
436.89
378.74
440.91
374.09
396.02
396.35
439.04
484.31
954.58
568.23
663.05
499.45
571.71
779.16
898.80
762.42
611.78
427.97
274.56
332.80
327.21
613.86
420.87
503.18
347.14
383.78
477.23
562.45
547.45
458.64
401.22
468.29
662.09
764.45
762.07
608.33
562.74
334.29
310.65
320.84
340.48
402.36
371.67
399.44
411.12
425.87
2386.13
586.56
614.15
467.46
414.46
450.73
490.15
514.33
536.53
509.40
518.49
567.58
376.35
798.61
388.21
411.84
440.73
401.05
447.06
443.19
417.27
396.90
376.77
532.43
627.62
541.08
1029.70
798.84
716.61
571.40
521.96
403.00
328.51
477.54
652.70
898.20
1386.39
1389.67
1123.22
643.21
315.64
724.58
1102.47
698.35
534.10
1157.22
1632.78
1419.34
470.28
1473.91
2393.55
1890.37
1406.05
697.84
307.34
385.38
429.33
568.08
789.10
868.49
878.80
642.87
887.53
494.59
429.41
619.05
611.82
434.19
342.67
358.42
393.60
402.44
499.18
502.36
461.25
683.47
927.55
1374.47
1597.18
1709.09
1601.02
1136.18
666.14
405.07
605.12
899.25
947.12
1114.94
900.69
303.54
359.90
369.61
444.46
459.97
334.04
346.37
615.73
377.42
755.74
2159.37
1406.61
1096.57
722.24
468.95
313.31
365.24
428.63
311.65
341.49
355.76
460.28
2485.33
674.70
520.38
816.43
1404.25
1121.68
530.01
358.53
310.33
417.50
358.97
563.73
528.17
586.26
420.88
423.74
395.81
478.80
489.94
485.74
856.52
1048.44
1123.39
898.71
377.21
1828.58
744.23
621.93
387.82
486.81
468.66
359.54
322.52
312.02
627.97
1247.25
1574.17
1428.12
651.74
355.99
469.44
626.50
722.65
474.64
439.97
465.97
595.26
623.21
641.96
794.02
1239.64
690.09
518.89
739.12
1118.18
1923.48
1429.47
353.58
1261.44
1865.78
1308.29
545.54
560.86
937.38
397.85
435.98
654.34
693.90
449.21
418.75
401.29
434.72
456.94
565.91
2040.70
865.50
1007.09
1246.82
824.08
440.52
483.34
843.59
893.74
1243.68
394.06
744.60
2535.05
852.56
349.48
537.94
438.40
305.30
460.03
644.24
534.01
440.62
344.97
453.81
411.19
909.63
556.91
526.93
447.49
458.74
456.32
513.09
467.34
502.16
385.95
470.75
458.22
759.04
1665.39
2473.55
2874.31
2522.08
866.73
736.16
1625.37
2067.74
1710.62
1111.95
371.75
1734.38
1018.31
1251.33
1270.12
963.36
512.68
329.81
756.42
855.00
745.66
388.36
476.47
1560.51
433.65
377.65
362.75
402.26
377.78
433.12
470.07
550.98
557.42
703.05
733.99
726.44
830.80
487.92
361.12
282.54
355.28
423.68
521.54
549.40
575.75
550.35
622.35
489.98
564.10
750.52
543.44
467.21
388.18
501.79
620.20
770.86
688.39
549.19
355.16
406.24
294.99
2288.88
367.67
379.89
382.16
318.90
504.64
346.76
355.37
578.21
586.09
570.15
576.31
677.13
1284.06
932.55
932.23
1031.72
1120.48
714.58
464.05
364.52
599.72
544.32
441.45
416.88
1991.61
353.46
354.82
524.50
666.77
667.90
776.58
705.31
352.29
586.02
784.20
685.75
377.83
697.16
521.09
569.25
673.69
702.70
599.48
972.52
1427.09
1589.58
1183.15
479.97
1173.25
1943.93
853.66
418.19
389.45
418.86
516.10
456.95
505.71
717.30
919.29
1412.93
1818.34
2299.38
540.18
609.59
1251.38
1137.76
581.85
338.61
333.57
441.59
567.84
508.34
635.02
1643.49
676.04
1080.69
1354.42
1105.70
855.92
493.49
331.77
341.76
479.29
333.47
332.05
1518.66
465.96
536.25
542.89
489.74
446.12
547.39
514.09
293.83
362.58
752.68
1440.11
1596.79
1041.53
350.03
609.69
539.18
342.63
425.98
548.62
700.51
590.68
517.09
288.27
338.77
862.18
440.66
552.49
551.80
495.98
412.33
299.36
422.68
599.04
628.74
484.07
445.25
543.46
843.42
677.12
687.29
720.23
412.38
308.53
480.53
1210.45
641.34
331.48
457.54
354.32
2255.03
768.93
766.59
622.54
630.52
679.78
587.54
506.68
377.55
404.23
322.32
434.00
599.75
980.89
418.51
567.43
710.97
712.27
715.66
679.20
744.37
665.29
519.02
543.89
383.28
456.18
845.52
653.68
497.02
458.43
417.20
456.38
506.91
385.46
455.22
357.68
416.71
555.33
749.16
827.71
605.84
307.05
316.53
330.58
578.52
602.32
566.50
488.86
432.55
348.76
428.45
2063.69
631.99
629.73
738.89
517.49
534.91
481.29
476.44
476.17
444.01
383.97
340.99
303.14
881.06
334.97
424.04
468.85
484.89
355.08
426.77
698.99
850.38
810.27
913.98
587.64
451.22
709.38
397.16
525.37
659.12
679.04
519.99
328.90
957.58
580.45
447.00
633.37
798.64
684.78
760.02
551.28
533.46
730.22
993.47
944.20
505.17
417.40
476.56
398.20
389.49
321.17
2005.06
311.56
324.09
710.30
427.17
394.12
483.46
597.84
537.41
643.45
745.45
1024.72
821.02
889.86
575.98
704.44
439.54
393.73
907.50
1327.06
1193.18
769.10
455.66
380.25
337.11
2081.30
335.06
355.27
346.34
402.18
508.26
467.13
447.68
412.26
411.53
453.91
938.37
1405.44
1482.82
549.10
419.40
308.06
382.37
483.26
435.40
341.90
329.51
467.15
314.59
347.48
2138.74
415.68
396.62
432.13
575.62
1017.82
846.28
539.99
365.05
333.00
556.81
517.45
336.59
525.16
447.75
628.48
704.61
665.09
606.76
655.07
664.09
719.13
804.74
818.80
654.07
339.39
793.33
474.59
494.56
617.34
451.66
356.03
338.95
463.59
573.82
453.93
454.56
574.51
2031.07
501.32
450.14
394.73
428.38
621.01
623.82
617.51
538.83
503.18
437.41
421.60
398.38
1008.45
494.59
532.33
499.60
515.83
524.43
334.68
325.74
390.89
479.72
733.93
672.21
494.06
592.28
472.30
612.39
546.03
422.64
594.28
590.45
404.68
757.47
813.16
816.99
733.62
402.15
368.65
460.79
537.35
705.73
723.86
530.05
614.14
669.18
626.69
589.93
496.10
565.13
1848.30
549.76
447.09
397.76
339.70
344.76
482.67
728.54
632.49
553.66
722.99
1298.16
825.36
535.55
316.91
306.46
380.65
452.78
654.84
505.81
447.41
494.44
378.07
423.24
645.49
571.24
693.88
779.19
1027.13
1225.78
1421.39
854.99
502.24
399.23
662.50
769.13
557.44
673.22
1286.86
709.25
728.35
475.32
372.74
462.02
571.87
528.28
832.27
981.62
855.07
709.66
449.65
393.93
520.54
643.06
779.43
851.23
659.81
645.61
373.21
904.95
1626.47
1834.89
567.19
1483.52
1381.10
1310.96
923.20
787.45
693.37
745.33
684.65
838.23
838.76
708.47
610.63
2120.90
421.30
502.49
642.21
534.35
424.35
591.83
693.41
524.67
477.21
490.34
371.64
478.82
668.48
468.88
540.50
700.62
393.98
415.60
330.48
434.49
599.00
548.69
470.13
542.53
618.17
772.39
694.36
640.67
957.37
795.86
317.49
348.01
294.80
470.39
466.18
649.21
564.10
1803.18
448.57
402.82
563.38
565.27
610.19
496.79
521.90
568.67
559.18
471.27
390.67
403.31
917.66
421.84
505.86
528.74
510.74
467.22
586.47
651.58
729.86
667.67
596.75
590.75
493.64
602.61
357.56
459.74
555.98
591.91
629.17
705.01
649.63
602.76
341.36
479.16
455.35
458.49
668.17
669.75
458.10
377.95
262.14
339.58
587.91
712.54
430.12
429.41
354.26
374.08
1788.18
465.83
854.95
1197.54
1029.15
820.81
628.99
391.63
352.73
415.72
415.19
421.80
817.33
1355.37
1135.05
1043.63
650.12
412.66
337.09
317.28
466.66
625.93
629.79
832.96
642.26
523.96
529.78
450.33
576.90
452.24
459.53
577.89
462.72
485.10
370.02
328.35
307.28
424.70
604.31
793.23
928.54
1187.39
1012.68
776.71
426.81
598.26
351.91
448.04
695.93
800.62
1880.43
1144.19
438.70
316.90
482.32
698.35
779.76
741.31
668.88
650.58
699.68
568.01
310.47
854.15
745.31
405.23
314.01
291.48
344.71
436.22
300.13
207.20
286.20
318.13
352.23
2020.12
302.74
365.64
361.13
510.36
455.87
529.98
482.38
601.46
495.37
554.45
587.16
533.77
1106.34
529.43
566.21
522.21
597.43
439.42
490.04
447.33
409.37
422.51
438.85
375.36
362.47
433.73
334.01
387.06
546.65
895.06
862.02
765.07
607.35
470.24
363.38
385.39
484.99
1657.00
397.12
366.24
435.02
436.96
451.61
583.77
517.67
425.33
377.15
354.22
442.79
417.45
940.57
431.56
399.06
383.71
428.18
419.78
428.17
410.86
502.62
426.19
448.78
427.72
402.87
774.47
551.75
722.01
830.32
630.10
492.80
487.20
454.12
465.52
460.99
401.92
394.41
498.21
670.46
846.56
1261.75
962.26
400.14
368.10
458.00
985.03
802.14
309.99
615.44
874.61
1899.77
1294.31
964.56
548.38
464.40
575.17
619.83
442.47
588.73
907.51
606.84
424.16
341.59
660.35
1477.09
1380.68
544.03
289.90
330.09
695.40
937.83
889.24
511.08
413.00
288.60
900.53
272.56
324.38
273.25
325.76
288.24
349.18
465.94
485.82
383.21
499.15
340.69
451.44
626.83
715.35
1014.37
1328.10
1650.53
1021.07
554.17
2139.38
1390.76
577.02
531.49
990.18
879.92
447.48
337.62
346.80
370.86
473.96
611.70
644.56
462.87
364.31
382.85
320.68
1424.28
635.58
624.02
639.99
696.68
575.81
542.24
582.87
399.27
301.18
276.91
228.79
380.27
1122.13
568.14
521.87
411.43
464.57
528.03
457.70
421.44
353.25
464.82
583.40
713.39
639.97
708.90
634.82
513.83
428.10
211.97
280.84
758.39
1354.95
486.23
824.22
772.65
342.29
1721.10
800.23
788.73
623.88
452.33
502.54
407.92
462.84
440.70
507.41
471.24
551.48
572.22
621.39
341.01
555.27
589.95
279.73
412.95
483.85
686.49
791.27
788.01
715.31
594.18
483.33
541.38
356.35
424.22
479.48
682.53
563.72
370.96
326.98
309.50
369.80
394.99
432.19
1386.57
548.26
634.41
628.94
594.94
491.77
426.54
325.90
323.16
401.27
397.72
425.67
479.89
1175.33
764.65
763.57
600.00
762.57
742.55
682.76
513.01
697.34
902.08
882.48
808.51
496.67
568.26
442.00
540.11
360.44
255.83
419.57
493.08
347.53
709.67
358.79
458.26
1227.61
2259.67
821.94
627.16
684.25
468.47
367.27
377.36
879.57
1009.02
683.53
344.13
363.12
432.09
778.35
335.35
318.68
320.93
338.71
369.53
421.00
394.19
499.24
573.98
617.76
587.84
633.96
596.68
504.65
493.00
535.90
484.87
617.35
718.42
592.73
397.21
476.32
712.27
818.21
1785.15
538.24
314.42
369.81
661.64
1803.56
2255.51
2042.57
1030.42
519.43
1323.57
889.72
1247.65
651.55
630.29
611.96
370.10
355.27
326.70
384.24
439.54
512.20
548.25
523.14
471.87
634.81
509.26
512.53
483.90
425.69
363.34
417.18
376.91
325.59
375.86
436.38
557.94
1466.32
592.14
436.35
471.65
516.10
524.27
514.42
669.39
704.62
652.75
617.71
404.35
349.19
981.35
743.53
723.35
683.34
518.24
396.95
472.46
413.31
557.53
669.94
829.35
609.13
435.38
824.08
431.86
844.81
845.50
614.84
366.54
388.14
401.40
485.87
410.49
666.00
817.75
701.52
581.32
405.19
757.60
515.44
373.06
399.22
488.69
454.04
345.27
389.89
401.15
453.23
1421.52
555.25
472.55
517.21
669.86
709.81
655.29
609.70
641.82
483.87
395.34
399.00
537.79
1203.38
564.08
537.27
475.62
480.14
606.74
561.04
358.23
503.68
851.73
741.95
540.06
278.42
351.77
740.98
1133.71
574.37
403.15
707.01
836.33
590.26
515.87
333.36
640.48
755.69
1942.05
778.78
777.85
881.28
816.47
795.89
751.81
476.21
343.65
572.78
1080.70
665.74
224.00
339.94
459.14
632.56
625.77
628.80
593.48
612.27
504.33
478.25
409.45
358.59
373.74
3528.97
451.96
458.73
566.64
574.21
496.92
334.30
430.70
309.51
564.86
890.70
881.23
660.42
993.59
403.87
512.45
402.47
578.73
590.94
542.94
613.19
495.88
657.10
937.22
921.56
1029.11
1503.07
1680.38
1185.89
457.67
519.83
767.20
1191.16
1415.17
1486.66
994.68
842.76
1866.08
634.06
306.47
1008.62
1709.01
2147.31
2000.92
2233.10
2318.35
1450.12
448.76
510.49
773.79
771.19
716.10
484.34
458.78
306.26
397.62
331.07
397.05
322.34
413.64
589.51
1860.72
988.74
914.38
784.79
611.83
325.01
367.55
327.06
310.44
404.50
507.11
572.88
542.84
799.15
652.62
779.31
551.64
472.04
349.82
339.11
338.37
510.01
974.07
1329.12
1665.67
2759.53
3391.54
4149.11
4250.41
3970.14
2631.16
681.73
1443.81
3165.22
3899.59
3810.03
3204.56
2475.49
2163.32
1440.60
412.74
710.43
925.26
627.68
381.16
613.38
906.97
1195.96
1651.81
1156.73
825.65
778.70
1007.97
1042.09
466.06
956.67
988.75
360.95
425.22
437.85
1149.14
430.97
418.88
407.92
346.63
485.70
576.04
414.98
512.88
579.22
463.09
554.96
662.54
946.23
744.35
397.05
534.28
673.27
700.17
1432.28
1146.15
545.15
284.73
465.36
576.77
1153.59
667.19
642.14
757.55
791.24
509.91
342.77
336.65
458.08
499.86
617.19
647.58
692.83
708.31
548.76
571.52
474.44
483.57
605.68
811.48
1390.10
2412.25
3559.23
4170.47
3457.51
1849.84
357.86
2094.93
2732.84
2222.90
1942.71
2189.11
1433.98
502.94
416.74
353.32
762.80
539.49
765.90
593.63
519.82
444.11
444.73
418.46
540.64
617.73
709.06
606.97
347.18
363.18
211.79
317.16
419.75
366.19
335.54
349.21
478.85
565.20
749.56
708.00
705.22
1379.84
662.92
426.85
412.95
470.04
465.70
637.64
958.12
1023.96
1026.73
766.52
558.12
527.97
778.38
464.48
656.50
666.66
656.35
548.13
357.23
366.62
512.86
585.55
569.85
662.23
640.50
570.21
560.16
519.39
525.49
498.58
575.56
538.57
561.66
536.10
440.07
526.73
518.47
1389.61
536.19
653.29
566.88
370.45
386.88
423.00
454.15
480.86
560.17
751.43
1156.67
1483.09
1535.69
470.16
1240.94
1685.40
1130.81
307.70
820.63
1225.56
1146.62
908.77
734.67
2013.89
844.93
550.40
448.00
402.48
450.93
456.69
372.53
371.24
223.31
390.49
371.77
323.60
569.61
404.14
365.19
310.00
391.92
352.51
509.95
711.34
873.25
899.94
818.37
620.47
410.64
1587.44
986.67
310.05
473.78
770.09
734.28
624.01
535.53
512.52
513.94
502.40
488.39
1713.86
406.05
441.85
483.56
536.76
591.30
594.57
626.60
539.94
469.13
536.32
471.96
514.84
753.05
439.24
513.97
713.58
778.25
639.59
592.71
597.43
470.99
516.34
445.59
475.70
440.09
460.02
519.18
516.21
581.79
405.10
419.14
432.12
428.96
489.19
448.92
520.99
584.00
1286.26
648.54
550.22
631.32
742.75
738.56
673.04
566.96
309.61
371.27
374.78
282.63
379.07
798.83
422.42
303.51
498.15
768.96
698.00
471.27
290.44
456.34
535.19
639.49
630.49
533.98
626.01
543.04
613.26
527.53
588.72
560.60
593.37
493.76
384.26
511.26
576.48
513.86
596.43
686.76
648.04
627.68
652.55
617.46
528.11
450.77
535.97
651.74
681.46
589.27
547.76
3260.64
448.22
420.31
379.81
414.48
464.52
382.69
319.94
429.18
546.09
636.80
663.07
612.75
1240.08
686.91
715.85
739.85
577.28
586.53
604.84
614.23
516.16
492.37
468.10
341.27
296.06
451.75
275.42
385.34
360.21
255.52
261.10
286.74
434.21
846.02
1686.52
2645.70
2505.90
1996.85
831.09
426.57
400.30
1481.98
2071.96
1073.01
350.40
512.36
510.13
521.70
369.17
727.94
498.21
851.27
1052.62
1007.68
770.97
434.98
418.85
442.34
493.03
563.88
328.09
3615.79
1084.68
961.87
574.04
347.97
386.11
371.05
377.19
427.93
413.25
392.59
386.39
413.06
704.11
391.32
387.55
447.14
445.87
488.93
571.23
640.40
666.47
622.33
607.73
608.29
680.45
800.29
816.37
826.23
750.46
717.42
561.37
494.02
267.90
270.14
259.72
470.70
523.79
2946.38
742.28
724.49
624.18
502.22
464.20
452.99
479.39
465.99
477.61
625.50
828.24
1176.86
1402.54
855.56
360.53
445.17
304.07
396.99
347.89
304.98
341.58
481.80
549.85
723.62
3133.05
731.23
878.82
847.03
386.03
362.56
329.48
275.84
305.87
408.81
470.86
682.58
634.93
1011.51
517.63
381.37
356.33
1302.26
2113.11
1700.07
720.86
1079.67
2175.10
1973.44
1596.85
1052.00
302.37
387.08
550.03
607.53
627.94
567.40
634.24
683.95
632.41
462.36
455.77
1724.08
480.15
610.50
830.43
865.78
613.13
735.64
824.49
573.82
420.08
291.37
751.39
899.13
638.97
242.39
391.44
388.54
411.92
515.11
771.66
1378.90
1927.38
1804.06
869.08
346.58
1417.02
594.31
219.33
281.29
321.73
453.28
536.22
889.61
1136.58
1072.03
618.28
334.27
1712.69
397.96
403.11
289.57
529.74
752.33
753.72
667.82
516.77
832.82
1394.76
933.44
449.02
363.46
429.48
391.75
485.31
338.65
359.07
320.08
386.18
396.31
530.80
590.93
502.54
3085.33
418.61
409.40
467.82
555.02
556.61
474.82
504.64
523.34
530.79
629.97
692.63
713.62
1286.04
817.32
805.10
911.35
762.12
483.24
359.57
308.05
528.59
571.31
414.51
337.66
461.07
506.07
434.18
465.43
397.21
448.01
450.44
528.47
617.17
420.19
454.64
518.71
564.24
3184.00
557.81
437.96
374.08
399.51
556.21
1069.67
1663.88
1825.76
1200.49
713.87
411.05
2033.54
1344.94
1543.90
1383.57
511.01
409.42
443.52
442.64
565.54
665.68
895.52
1041.29
2054.21
1078.73
653.78
448.63
378.01
340.75
448.19
410.78
344.45
310.83
438.80
434.19
3622.69
637.00
557.12
381.83
290.26
447.80
549.45
507.20
577.50
454.36
722.63
1045.73
1031.24
1515.59
982.58
666.07
574.69
486.00
513.70
675.42
720.03
418.82
375.31
304.97
423.24
3427.78
637.00
608.15
314.39
298.67
439.38
447.28
529.49
580.86
608.57
508.02
441.51
412.12
826.38
391.65
508.80
448.77
427.64
526.77
553.44
472.42
578.02
682.46
649.93
704.73
459.60
559.18
462.00
723.07
692.77
529.26
315.29
367.62
287.66
442.59
753.23
885.74
843.34
448.52
506.17
392.24
433.22
371.66
406.26
324.28
394.68
367.72
305.34
348.40
421.36
566.74
3078.46
518.51
471.42
511.50
499.01
523.12
721.08
588.54
381.84
341.54
407.74
391.62
405.53
1033.66
563.13
429.79
395.74
374.95
404.32
531.79
525.65
547.88
603.03
639.85
672.60
786.75
797.99
446.04
472.24
507.82
684.48
808.23
719.12
491.98
351.41
1019.69
1134.45
358.05
1364.34
1027.95
942.76
484.43
342.77
453.53
653.87
907.17
974.70
720.94
625.74
495.50
462.82
809.29
800.51
729.64
516.68
339.22
939.88
1238.95
1233.94
844.51
393.32
311.46
355.25
1676.02
445.96
591.40
811.50
945.30
1035.87
619.01
402.43
326.54
294.15
407.62
408.62
595.16
1111.81
1367.21
1692.31
1157.70
383.23
640.86
1237.79
1226.80
903.71
807.39
611.05
1883.02
302.46
336.86
430.67
568.16
458.27
477.64
569.26
559.52
440.90
469.49
491.10
503.62
796.28
578.67
590.09
407.26
477.19
436.56
542.94
704.02
696.80
504.62
540.14
537.32
420.60
686.09
808.48
878.42
997.35
1014.04
876.48
396.17
1069.03
1459.72
496.87
407.57
441.17
538.56
542.17
483.05
403.77
321.82
385.56
284.26
483.60
561.64
634.53
647.57
677.55
586.04
604.01
506.82
399.45
483.33
552.53
591.59
552.10
460.47
475.48
450.78
516.05
495.96
2998.28
515.06
427.87
367.70
401.68
472.08
571.39
577.29
590.95
442.93
400.20
425.52
401.90
862.10
500.72
507.07
561.20
615.55
560.27
391.64
285.96
279.62
346.43
483.22
643.46
598.63
710.06
341.17
368.45
316.13
388.88
394.07
446.14
471.12
476.16
494.46
523.40
562.66
571.20
528.87
412.82
481.25
600.12
822.21
751.67
577.58
393.56
333.14
391.01
350.40
265.02
2851.57
571.02
460.78
445.22
470.09
403.81
474.51
666.47
845.39
920.45
788.30
590.73
467.76
828.90
448.41
485.30
471.21
456.78
492.11
530.27
347.73
339.82
470.26
538.02
463.52
649.74
994.16
773.51
511.71
303.45
266.29
363.06
540.54
770.52
734.26
753.42
584.25
386.59
323.03
467.62
350.89
309.83
386.30
700.35
1018.14
1202.26
812.72
414.44
557.60
711.04
1013.66
1644.37
904.30
320.33
424.88
393.71
375.10
306.47
444.08
334.66
305.28
334.14
473.85
659.59
851.11
839.31
626.20
483.08
426.75
450.97
498.71
649.81
719.94
549.07
300.58
987.42
3470.59
504.08
744.84
887.95
889.46
961.70
886.74
876.29
548.67
362.43
421.66
633.25
409.29
805.07
402.35
262.24
447.88
918.90
831.26
763.34
342.39
429.65
487.13
593.75
587.88
582.80
635.43
369.20
443.47
578.74
741.50
890.42
974.34
906.22
748.33
533.33
434.02
451.83
474.56
720.18
716.49
671.69
428.73
346.35
375.49
503.92
359.58
302.26
381.80
507.55
568.69
2803.74
1392.50
1946.69
2056.05
1467.05
714.24
396.17
872.15
702.89
455.32
323.37
449.04
1706.20
503.32
648.12
620.73
612.07
535.60
339.06
663.89
728.29
511.06
325.00
569.57
707.68
779.64
496.86
339.09
358.35
762.06
778.53
685.68
474.32
337.24
367.79
432.11
482.86
386.36
465.66
438.39
523.19
629.75
669.96
509.88
438.30
535.58
614.33
583.78
566.84
663.44
2871.79
815.69
660.86
790.14
641.49
474.78
286.51
257.07
348.66
424.68
461.46
563.36
644.56
1213.96
860.28
691.84
459.65
424.35
768.46
722.62
279.88
412.86
488.58
419.10
397.95
315.46
428.09
523.00
571.46
640.80
808.05
506.39
702.29
667.44
533.59
1300.29
1711.13
1402.63
1457.21
508.43
350.35
676.89
810.45
379.74
1231.37
2316.49
2184.54
1040.77
356.56
1380.48
1777.34
1492.00
440.98
371.17
384.85
309.31
602.18
1006.12
1148.72
853.34
426.60
343.84
712.91
1098.87
808.46
455.55
677.40
596.24
504.17
700.82
618.53
501.99
543.85
345.64
1744.21
466.49
415.48
350.84
495.80
621.71
719.23
604.53
421.09
353.22
481.69
374.90
300.50
527.02
496.42
544.18
565.92
637.41
805.00
1029.52
944.50
801.84
582.14
341.94
259.23
328.62
412.63
364.77
445.95
467.20
496.97
403.73
272.86
466.35
601.68
809.97
741.44
716.76
2813.56
469.36
383.23
329.07
461.84
464.15
453.46
526.86
319.47
421.25
422.18
352.36
367.24
885.05
500.87
481.49
531.47
440.11
428.15
445.71
327.41
393.51
635.12
588.94
636.51
680.41
1118.56
1398.50
1663.27
1147.24
464.44
830.03
1448.95
1488.73
773.22
521.11
530.03
2871.77
572.48
626.48
596.23
579.85
671.74
737.05
1080.75
1303.90
1362.65
991.50
625.26
2803.98
534.35
629.40
306.13
414.37
788.58
1190.01
966.95
390.79
584.63
829.86
658.26
365.76
570.89
503.22
520.60
389.58
698.37
914.31
857.07
868.80
673.87
384.86
463.29
613.39
858.19
680.64
442.49
358.86
286.46
463.22
509.29
601.24
558.13
504.45
493.95
465.54
475.00
2659.20
482.72
581.94
440.18
399.48
327.15
404.98
507.79
519.49
482.72
387.26
363.35
358.56
780.04
265.87
409.03
523.22
615.90
354.73
361.53
490.11
618.88
768.00
862.21
876.77
649.87
765.44
614.42
422.64
356.70
364.54
394.47
512.84
713.78
770.09
597.44
395.89
625.86
329.37
652.38
755.32
702.03
634.59
477.66
299.06
341.06
676.31
661.31
580.37
409.24
263.99
2581.23
326.88
416.94
478.01
436.81
412.83
541.50
557.80
573.60
566.73
538.00
456.87
521.03
761.29
317.27
300.80
347.76
374.63
393.72
329.49
399.65
366.47
373.60
406.71
367.81
373.92
666.50
358.64
406.52
402.50
440.19
440.20
472.31
562.06
698.92
672.62
525.25
485.99
470.05
460.23
410.49
387.58
471.71
608.41
655.68
652.98
381.55
536.73
451.00
412.94
405.83
2561.65
489.43
549.16
477.72
426.84
519.32
576.52
531.82
489.85
386.24
388.09
433.04
448.59
868.42
470.25
359.80
432.05
645.36
683.28
656.63
458.84
497.13
965.46
1761.00
2245.80
1981.58
990.67
544.59
1944.31
2299.43
1860.36
1131.14
464.78
285.51
442.67
429.12
582.79
1888.35
917.04
686.13
415.40
348.26
334.52
353.77
406.87
442.55
444.04
443.44
451.91
355.87
583.17
411.35
458.88
674.24
801.82
731.97
665.41
550.19
259.48
435.89
444.20
358.88
357.51
561.91
605.39
709.85
603.64
486.80
614.18
627.86
596.22
509.03
505.40
492.53
445.68
2663.76
686.32
591.68
489.01
569.04
540.02
506.26
472.64
575.96
486.25
446.68
474.39
475.91
978.16
459.69
522.05
566.62
355.63
437.69
484.61
554.02
509.22
347.21
405.96
435.03
452.51
734.95
298.65
587.31
1217.69
1247.80
437.56
487.89
879.98
884.52
524.35
940.70
1299.18
2696.84
374.80
488.86
549.34
467.09
707.62
1046.98
1261.18
1391.40
765.68
368.65
922.16
2650.82
647.74
446.82
465.51
492.87
596.65
643.46
483.49
473.40
506.29
552.63
683.36
774.33
850.09
662.16
541.88
422.34
370.96
330.15
391.96
415.08
533.48
656.55
842.95
726.44
563.02
643.11
594.69
566.64
595.91
516.20
348.99
385.89
343.02
357.87
347.90
269.63
343.29
2655.39
332.62
361.45
359.95
567.86
596.02
422.91
385.38
419.36
436.36
450.92
357.27
458.91
913.56
364.12
398.67
506.29
519.67
542.28
544.50
548.96
407.80
506.19
584.69
636.82
761.04
1097.65
703.36
525.67
431.98
435.27
425.57
593.18
479.88
413.75
370.25
432.69
529.02
2571.15
524.68
454.07
504.95
469.51
355.14
415.02
328.96
505.49
559.48
618.87
452.51
458.08
947.18
565.14
703.85
745.65
722.38
727.71
462.87
370.71
363.20
310.48
373.10
439.88
398.58
739.68
557.45
425.04
587.86
371.46
629.61
815.87
976.42
928.29
659.57
384.07
302.24
390.07
383.90
411.65
444.34
385.16
486.83
353.04
331.13
345.13
419.67
442.26
526.22
550.05
2536.71
305.18
459.42
307.29
582.50
761.70
819.67
822.36
705.75
728.31
521.11
422.47
453.65
804.33
379.78
515.55
814.39
1038.82
907.27
807.98
992.89
1057.76
832.35
661.38
549.40
2500.22
692.84
805.41
728.40
454.72
1263.02
1414.29
1559.02
927.62
659.49
687.87
700.69
2865.83
349.26
559.81
479.81
480.16
475.61
392.25
438.22
429.64
459.33
510.50
389.46
483.31
978.29
577.20
570.73
511.89
443.20
428.09
480.80
519.29
501.55
517.54
436.26
612.21
541.88
874.73
616.44
597.52
430.69
364.83
390.81
364.33
398.68
598.65
911.53
845.09
987.10
923.86
994.18
1130.87
1098.06
689.13
466.13
399.47
420.80
401.78
299.61
360.62
337.34
370.96
616.51
378.16
697.52
1552.61
1833.90
1131.05
610.74
457.02
950.55
1254.19
1441.26
1205.36
682.30
360.66
420.76
343.18
414.39
667.60
825.90
1169.82
1515.76
1324.03
626.13
441.45
429.44
522.84
543.02
364.71
495.41
585.76
557.42
627.04
674.84
723.92
772.85
506.52
2538.88
640.65
824.94
603.32
353.04
459.76
529.25
410.81
349.03
534.29
506.30
591.12
569.11
1204.95
771.54
614.47
543.84
452.06
391.32
438.30
397.18
396.08
487.76
454.06
409.17
467.40
616.34
469.11
439.80
486.70
459.83
424.67
446.91
395.62
448.16
533.58
533.23
554.98
2549.39
494.36
367.13
431.93
398.65
549.58
505.17
352.34
309.94
355.79
406.91
416.54
607.82
848.99
468.10
584.80
768.38
832.39
861.17
724.54
518.78
411.46
379.47
386.78
339.41
397.92
573.85
450.96
453.87
529.42
575.38
564.34
489.47
514.81
449.48
506.65
654.88
677.47
629.95
605.18
671.15
1108.21
678.14
372.16
601.11
684.19
679.59
692.64
612.51
534.92
337.46
1515.80
637.54
741.06
809.68
728.63
656.29
596.37
455.62
592.90
539.52
428.56
280.34
401.16
666.66
1038.46
1882.56
2107.68
1731.44
705.25
639.76
1490.44
1962.46
1783.39
1255.23
385.53
545.17
525.88
620.76
988.76
1083.08
1196.35
839.02
434.27
394.51
869.09
852.55
558.50
476.72
404.59
478.86
602.98
1032.23
1763.88
2154.47
1982.67
813.99
612.81
1382.32
1591.07
942.09
382.94
499.90
639.33
747.63
817.34
474.72
407.23
351.97
471.18
546.15
572.23
1957.96
413.41
575.44
351.57
487.82
864.35
1436.84
1962.00
1892.90
669.81
1028.61
1636.02
2318.05
1528.02
995.67
474.65
395.28
429.69
529.40
561.68
584.16
572.00
597.87
506.37
1919.29
468.12
573.76
836.48
711.30
619.71
714.13
803.54
903.84
861.60
606.98
537.59
395.89
984.33
639.57
399.15
818.65
762.65
731.97
388.80
387.10
587.77
681.93
682.57
738.02
700.14
751.97
465.35
312.75
631.92
421.21
410.96
385.85
420.19
395.34
411.56
438.30
413.25
2214.22
501.44
538.74
654.50
984.88
981.68
722.54
401.92
494.05
324.00
457.17
705.53
738.32
1457.31
938.84
591.35
425.44
335.54
394.26
295.41
381.05
461.57
508.02
535.38
430.36
417.08
508.57
411.22
345.04
367.54
558.54
557.26
555.61
523.81
564.11
518.88
569.32
573.02
2296.76
565.83
479.87
652.62
601.65
561.34
707.45
1009.52
1222.45
1327.45
787.37
364.07
3500.56
1484.86
1300.00
1107.30
518.61
419.01
592.09
646.22
474.09
521.00
517.16
568.12
2330.46
596.91
708.63
695.96
561.25
558.94
494.74
326.38
355.42
653.32
1173.90
1682.08
2068.58
2179.45
894.06
539.72
1272.28
1860.87
1712.30
1090.27
457.68
401.02
342.90
357.68
1820.93
384.68
484.55
428.75
472.43
422.98
459.99
496.32
769.25
823.22
521.86
332.76
344.97
707.11
504.22
425.48
484.35
418.67
375.19
472.07
372.56
571.58
694.14
861.45
905.52
894.71
720.77
739.04
616.42
526.47
428.40
435.57
286.09
384.89
360.73
399.86
273.79
437.40
2157.33
637.07
742.26
802.80
778.95
992.03
1256.72
1100.75
750.82
427.12
534.01
734.26
649.04
386.92
382.63
332.63
463.45
691.67
552.84
375.81
354.58
306.80
509.89
428.06
428.98
2205.98
497.73
593.82
597.44
514.21
532.03
561.78
567.56
622.85
704.21
424.03
285.78
326.15
819.22
350.21
354.85
494.47
562.87
654.63
468.03
529.25
557.28
610.21
643.27
495.52
331.57
720.87
381.50
432.95
316.25
287.26
586.61
928.03
1145.62
1093.38
689.33
451.29
391.69
1572.55
538.75
430.72
461.71
944.57
1187.19
823.33
373.07
440.50
753.52
1033.62
710.30
378.44
620.89
688.20
649.27
591.51
496.98
450.11
411.90
433.41
380.94
466.86
325.96
353.26
2071.26
425.30
549.51
517.55
678.64
1054.03
1547.75
2825.29
3189.19
2357.12
758.00
941.02
3212.30
3065.02
2634.69
1700.55
561.83
393.26
469.54
531.02
478.80
508.90
425.25
584.87
1033.04
646.13
551.68
564.19
728.50
611.58
704.87
772.18
875.98
718.33
588.96
357.12
307.82
636.05
238.97
428.36
460.85
672.16
821.02
762.40
485.38
386.07
387.51
400.54
314.86
310.77
480.73
422.61
493.39
514.72
595.12
720.86
675.82
755.26
628.77
544.72
372.22
402.61
1969.58
1053.63
1117.13
752.89
503.70
467.85
368.26
354.60
658.94
597.17
306.75
530.02
463.64
540.80
427.73
330.46
409.25
531.34
536.41
713.72
1015.85
1427.14
1707.71
1671.28
1244.29
615.13
867.25
1406.20
1368.35
773.29
417.58
771.89
1064.31
1582.67
1458.93
587.76
2990.90
2076.19
2192.39
1087.52
343.87
538.61
590.56
581.32
508.12
439.33
369.96
446.65
1532.62
476.57
503.09
592.72
477.05
460.36
554.11
619.37
618.30
497.07
419.42
577.47
504.04
748.65
578.87
708.80
514.31
413.50
463.25
444.16
833.03
335.72
626.47
688.63
644.60
601.73
773.04
712.10
832.66
597.22
519.29
246.91
427.93
304.79
586.73
1015.32
1017.07
759.77
2045.69
343.00
463.75
316.57
375.00
485.38
398.38
322.74
319.23
372.79
435.13
530.69
596.02
1089.97
574.71
483.71
376.51
437.99
402.95
491.15
317.21
367.40
387.38
461.34
448.02
576.94
552.53
594.60
478.29
420.80
479.07
458.46
612.74
649.06
663.54
583.28
512.93
634.66
2050.66
427.39
387.47
346.53
407.56
356.63
403.03
412.39
456.42
490.09
386.55
416.46
395.79
841.96
464.02
600.03
794.00
691.83
655.54
505.78
440.38
435.84
394.58
466.53
517.13
586.69
944.49
827.09
720.54
514.50
488.15
364.77
318.43
425.97
515.26
581.72
507.30
499.43
466.07
472.68
438.34
388.53
454.99
514.07
626.47
597.04
504.88
249.06
311.82
504.06
829.70
2304.15
994.55
998.31
1010.99
763.70
529.01
519.67
343.99
895.26
1454.22
1697.63
953.93
212.84
514.08
778.16
1531.39
1451.73
595.40
320.73
728.15
479.04
384.00
545.31
468.62
315.44
870.40
553.71
695.68
762.13
696.77
562.47
444.96
445.34
574.24
570.06
499.58
359.08
575.09
707.12
469.19
566.62
390.70
321.82
473.29
1040.32
483.03
424.85
594.34
736.18
919.78
867.55
1053.65
910.49
586.97
375.47
548.40
873.59
413.59
361.54
433.31
409.54
428.55
529.22
1672.50
879.43
956.62
770.93
301.73
622.69
624.63
400.80
584.10
533.56
562.54
543.34
501.76
856.70
627.78
534.79
396.51
622.36
677.28
657.63
496.86
393.24
544.79
656.67
705.53
489.36
403.10
358.60
363.68
352.11
427.77
484.16
375.13
330.08
247.23
395.16
477.08
583.13
2052.98
966.46
941.91
763.85
400.09
412.50
369.59
444.96
672.43
351.28
541.19
495.36
451.64
1205.05
781.82
754.83
731.92
535.92
328.22
271.89
497.54
597.36
706.51
601.36
570.75
594.67
651.85
425.48
448.86
596.15
317.58
320.02
623.07
875.00
572.63
370.13
477.95
763.66
2172.46
1625.64
2101.75
2295.95
1705.94
824.76
302.12
1314.21
2070.54
1496.27
912.32
511.59
376.37
280.58
437.54
507.14
611.23
618.81
558.44
639.75
491.58
544.11
519.89
634.56
1763.20
655.08
781.61
1015.52
906.25
659.47
574.81
446.58
353.73
399.80
244.58
879.98
1306.88
1405.36
330.56
391.91
551.01
619.00
624.93
810.53
684.58
787.16
471.26
315.71
301.67
1701.69
361.36
281.25
266.00
460.13
836.38
1001.88
824.44
495.78
340.95
499.50
742.05
752.45
1070.42
621.83
390.55
279.49
365.75
334.80
273.78
254.44
298.72
629.33
648.54
702.64
706.82
754.47
539.81
499.85
487.61
465.43
508.57
586.00
762.14
829.62
772.82
369.26
476.63
2245.30
794.38
509.98
444.72
518.93
314.29
511.26
593.20
562.57
495.12
500.56
518.19
518.87
921.84
562.88
386.12
423.69
551.09
618.97
624.73
635.47
532.35
413.52
499.61
665.09
846.53
923.05
286.56
345.86
408.18
486.14
477.99
419.59
432.26
519.54
382.47
380.12
444.49
414.35
730.53
760.83
801.28
612.09
339.29
371.22
506.04
593.14
800.39
586.51
386.67
587.97
1536.79
767.40
711.11
533.88
310.10
569.43
790.27
539.37
362.45
616.32
651.82
368.33
368.23
854.69
489.44
1021.75
1122.88
1132.74
1018.68
815.60
418.37
382.98
331.46
450.27
754.12
1852.15
300.56
824.71
1026.86
1072.38
368.55
375.92
589.22
612.85
568.84
472.17
319.21
328.54
476.05
403.91
408.69
469.73
472.47
592.43
713.19
748.47
679.87
654.63
564.29
518.10
1531.58
489.13
389.81
637.99
701.68
723.13
612.41
579.08
596.78
619.35
525.54
420.70
340.67
820.51
295.71
249.70
336.27
369.49
317.34
373.59
505.85
646.47
635.40
638.38
553.77
521.59
616.03
330.37
372.49
348.92
442.51
413.68
395.57
373.79
365.50
361.57
303.89
485.38
374.55
663.92
695.10
846.56
825.59
648.11
302.13
878.52
823.93
478.92
947.64
1116.04
485.02
2111.58
291.44
622.68
692.82
715.78
463.63
322.56
299.54
275.56
551.70
771.63
843.90
870.04
946.85
748.93
392.83
431.92
551.91
318.92
554.00
765.92
690.90
502.85
548.58
900.62
1224.23
1242.38
592.36
446.71
304.53
334.97
848.88
550.27
395.49
693.88
806.19
808.85
726.75
1044.90
542.40
597.82
474.09
228.04
321.36
541.78
707.30
601.12
396.82
409.50
580.37
576.08
806.66
567.70
421.59
288.18
365.88
307.41
301.12
422.14
479.36
495.13
506.44
459.99
1392.47
346.12
277.15
366.84
334.73
455.20
673.29
634.88
553.82
624.81
797.24
890.67
942.73
1443.62
416.17
355.46
428.28
477.36
648.78
719.55
546.45
504.82
372.90
294.77
751.94
425.94
494.62
615.77
736.02
847.83
888.24
623.55
321.77
370.96
1070.40
1529.30
1366.74
549.31
1247.25
1118.77
1183.32
507.66
310.89
414.84
438.61
346.71
263.03
367.02
336.77
284.98
1743.30
432.29
607.86
558.93
653.38
571.22
531.21
556.79
448.19
445.90
509.06
526.94
581.87
715.66
359.30
570.87
557.48
567.63
673.90
801.35
754.56
785.29
751.00
669.96
559.06
513.23
491.02
278.56
381.59
335.42
313.30
371.94
363.07
593.16
704.44
793.71
747.43
607.66
1405.28
427.89
677.78
684.26
335.76
569.94
655.92
554.81
521.29
587.19
544.44
623.91
883.59
1481.94
1080.68
755.47
409.08
375.32
537.81
416.60
343.36
540.01
609.53
647.08
660.78
1478.47
496.43
550.30
459.49
454.85
483.78
555.49
531.64
771.84
834.78
746.09
423.44
364.45
856.18
398.06
345.84
376.19
380.99
359.52
381.10
593.06
741.67
960.42
1159.89
1046.03
518.13
376.90
449.99
310.81
405.63
652.69
822.61
1173.56
725.70
326.03
707.93
665.52
350.04
1707.61
366.18
295.76
305.82
312.80
367.97
325.32
470.55
588.66
498.31
519.85
540.08
581.06
789.15
776.73
819.07
822.12
703.29
691.23
630.60
440.91
319.28
385.91
584.45
646.79
569.29
479.54
333.65
546.72
405.32
324.42
416.07
412.15
354.36
328.19
360.65
469.53
475.29
1376.48
529.24
641.10
668.60
471.62
356.64
405.15
426.91
323.47
357.21
696.44
930.63
893.70
1449.52
810.61
571.56
454.31
313.31
405.59
353.68
351.83
371.85
407.25
535.42
571.10
595.65
660.41
517.26
474.63
491.53
561.79
471.94
400.10
520.34
644.68
615.92
454.00
324.31
3307.84
639.88
640.98
753.39
970.67
1041.86
993.26
720.35
496.48
429.54
315.68
364.99
244.18
943.23
371.49
368.81
656.48
847.64
947.36
849.71
693.36
307.83
375.49
468.08
747.83
766.02
876.01
357.09
351.53
408.44
384.86
366.35
458.41
446.84
348.55
326.74
384.07
283.91
378.47
620.51
711.45
860.17
891.41
476.02
350.47
348.61
363.70
338.76
380.27
308.66
466.08
1352.32
458.01
603.31
678.93
662.82
635.33
607.64
463.39
455.12
382.70
258.38
399.20
535.14
1149.15
629.43
629.81
577.32
831.88
1072.64
1534.27
1359.01
953.10
493.80
432.22
750.49
1432.08
405.90
272.57
363.28
321.59
635.41
875.59
1133.77
1437.83
1139.77
578.54
440.84
1392.24
454.49
722.08
1129.40
983.92
502.65
342.89
499.43
621.20
673.47
653.53
615.98
1618.94
347.20
433.67
467.06
586.26
469.11
440.00
401.92
606.10
826.98
743.94
685.46
686.55
720.67
428.84
436.94
428.31
413.55
455.81
435.04
336.68
303.63
406.00
488.27
587.45
639.75
812.39
723.68
834.18
750.19
349.22
469.09
325.01
368.40
443.63
404.42
439.88
438.64
3324.07
475.17
531.86
430.94
516.20
583.05
603.45
409.16
309.61
319.67
339.76
464.42
666.72
1126.93
580.62
439.97
445.58
439.23
473.10
462.86
490.11
444.50
471.15
456.35
428.07
352.96
498.95
355.54
412.74
393.10
497.03
426.74
529.21
414.79
411.43
419.31
635.53
698.73
3285.39
573.76
639.96
795.39
798.63
836.75
686.07
771.34
596.23
340.16
479.66
850.06
791.30
1032.97
281.38
410.37
603.26
568.42
853.80
983.51
1009.01
952.32
585.16
408.24
925.76
721.33
410.71
463.06
573.88
786.72
912.46
1044.96
924.59
694.78
686.55
551.04
346.12
504.71
2168.02
445.68
377.85
548.49
535.62
457.28
410.32
424.71
393.93
488.03
649.83
1046.46
1326.08
1770.65
1099.18
416.78
343.42
727.41
690.06
316.40
503.43
772.12
908.48
879.47
806.53
1212.75
435.51
532.78
713.89
469.82
671.90
1251.88
752.30
407.55
598.99
691.46
696.56
1374.67
463.09
409.89
397.79
291.90
422.68
516.74
572.37
412.74
377.26
293.67
440.30
300.73
843.90
332.62
341.57
415.24
449.58
713.92
690.07
752.65
692.21
448.36
381.68
408.39
523.48
811.14
699.73
818.89
1008.08
1013.31
928.23
837.50
514.95
403.97
331.90
300.94
350.49
431.13
734.24
595.45
507.12
527.48
440.16
402.61
599.58
827.63
784.95
570.75
607.09
455.74
3545.13
780.52
684.12
740.90
673.75
409.43
260.35
353.40
461.28
633.64
803.93
931.88
1000.07
1421.33
513.92
270.23
493.58
624.36
361.84
699.09
725.37
685.06
696.34
700.83
515.58
324.69
393.60
404.05
366.38
295.05
366.69
562.18
771.69
813.98
968.75
901.70
997.22
861.96
3239.77
488.36
308.68
688.99
816.36
831.00
388.91
421.29
535.50
622.20
785.86
791.56
483.26
1098.34
623.58
519.00
524.14
407.26
410.44
396.51
498.94
658.23
673.83
749.28
693.97
429.38
553.03
456.50
324.40
341.17
399.52
436.34
467.77
429.66
490.03
401.51
562.03
627.35
3166.41
633.79
658.99
529.13
533.18
441.53
536.27
620.24
452.42
365.02
420.96
459.33
566.53
1064.15
536.98
528.43
292.03
529.62
509.12
291.92
540.32
677.50
688.20
721.05
447.96
339.39
482.66
343.49
480.95
539.43
512.14
415.18
361.91
300.41
291.81
330.08
320.23
374.59
3227.77
767.09
804.37
558.26
535.79
653.86
638.35
576.66
660.79
624.48
712.79
630.01
396.54
895.80
508.04
467.43
627.65
623.27
879.07
1095.14
1173.80
960.29
777.13
478.66
331.84
1371.86
345.55
273.06
358.75
399.59
304.30
333.70
344.75
332.31
334.51
403.12
417.70
452.98
828.39
330.18
266.86
341.29
445.73
591.47
640.14
542.04
591.44
728.26
1036.41
2201.14
2895.50
3012.58
1601.77
841.87
2894.71
3513.02
3073.87
1748.71
502.64
392.36
627.71
845.93
1283.78
1016.84
903.50
670.24
493.70
326.38
326.17
306.32
399.64
465.44
522.72
561.92
3140.44
704.57
856.52
834.82
1061.62
1201.91
737.65
383.76
882.08
668.09
382.67
316.20
577.88
775.89
784.40
818.21
663.44
319.67
469.88
330.09
338.44
454.96
606.87
631.40
567.23
1328.70
634.15
485.87
706.51
794.49
988.98
1109.52
986.91
847.67
748.66
769.68
553.55
309.93
693.43
375.08
470.62
788.04
656.09
610.97
381.66
409.68
445.13
532.10
466.00
510.79
399.75
349.95
357.82
403.59
454.91
659.52
825.82
808.69
829.92
787.11
671.30
409.40
711.96
1350.68
359.01
322.59
332.77
361.80
459.65
642.03
723.31
724.50
660.56
391.42
311.54
355.45
788.70
416.36
488.76
633.85
597.28
464.56
412.53
360.61
611.16
700.55
696.54
556.71
631.24
1022.53
835.77
556.77
775.57
1276.93
1483.77
1420.08
745.84
307.16
1160.41
1339.51
547.18
535.20
403.76
470.64
439.97
715.29
1013.55
393.15
480.93
733.92
872.07
1051.24
1081.11
2319.34
385.90
398.38
548.80
744.97
817.76
793.69
1002.20
729.59
516.28
325.45
457.07
335.03
792.71
1093.60
724.16
350.30
447.84
281.47
408.69
566.10
1141.48
978.73
625.09
304.76
756.38
400.68
486.28
571.17
626.03
533.30
598.63
781.24
1049.45
959.71
578.67
416.82
410.13
608.73
456.77
541.76
462.65
302.67
417.08
512.67
524.20
469.21
500.21
444.85
348.59
3129.67
624.50
572.08
583.21
769.25
594.47
413.81
469.20
666.14
552.99
465.26
491.47
368.53
796.75
417.15
440.58
393.91
344.09
525.05
374.10
322.88
295.06
400.32
572.29
651.21
996.52
1629.69
1426.02
965.54
867.10
991.51
1458.69
1325.37
578.81
1025.05
1688.53
1657.74
2713.55
562.36
894.35
1568.25
2553.12
2203.76
1539.87
578.60
642.61
2214.69
3380.99
3557.49
2219.82
625.71
697.22
1272.41
948.03
640.08
1078.20
1193.58
1064.84
431.98
972.52
3593.13
285.39
327.60
434.52
340.56
452.90
485.94
721.40
696.24
824.78
869.19
776.99
776.89
1050.04
431.40
337.95
323.64
459.75
620.58
500.21
434.61
632.69
644.15
500.75
451.81
378.38
785.74
842.42
370.98
438.75
894.31
1366.76
1611.00
1660.76
1032.39
532.23
708.05
851.00
917.47
391.41
297.99
661.84
785.37
762.85
355.58
301.87
279.38
359.57
311.37
427.74
523.68
673.59
647.29
655.41
637.96
583.15
866.71
1007.79
846.74
483.72
430.32
551.27
308.91
1783.63
314.00
380.77
362.54
472.73
839.91
537.34
311.60
451.27
938.47
1439.46
1939.42
1614.03
509.41
838.91
265.90
681.44
885.74
481.97
301.91
385.53
576.20
1321.96
2519.91
1675.18
538.50
1950.91
3528.57
3085.94
759.85
1314.33
2336.38
2589.42
2747.93
2030.50
882.04
708.78
1362.64
1950.69
1508.80
722.49
318.96
319.65
322.61
706.01
760.30
333.36
343.66
1361.82
1278.93
1050.63
1381.21
1606.43
1265.25
1374.05
1068.64
466.17
603.01
1137.12
1811.46
788.25
314.37
420.06
342.17
414.96
479.80
1248.69
1095.16
692.56
647.62
641.30
827.59
293.68
359.63
363.26
457.92
477.36
916.75
1545.46
1737.62
2260.63
2621.21
3751.84
3165.19
1660.36
654.76
3060.47
3383.79
1889.81
419.54
918.25
725.92
516.81
578.46
745.27
417.16
476.16
635.34
1075.15
1121.74
631.28
446.31
1355.38
1579.89
1717.66
1048.59
517.14
1079.12
992.59
379.80
343.48
632.59
856.30
612.50
414.42
376.43
331.36
342.27
350.00
910.61
573.15
505.37
642.40
636.61
612.26
785.95
1296.37
1384.67
789.33
517.48
407.32
2894.47
1095.71
1228.29
1002.37
370.66
1400.84
1458.86
893.05
428.38
1010.03
1835.89
2042.83
1175.66
743.85
350.89
1078.95
1406.42
1013.20
362.57
450.46
464.83
406.56
322.87
465.16
619.21
495.56
476.38
478.12
332.57
967.93
718.68
281.50
651.38
751.24
456.22
370.68
308.51
417.24
337.53
489.65
457.94
450.36
711.75
1046.40
1057.59
971.98
561.69
394.96
362.98
1784.99
678.74
742.03
674.22
670.89
773.01
705.12
443.05
421.68
645.68
849.46
545.68
285.41
839.76
1330.88
2881.96
3787.06
1823.88
440.90
780.13
839.07
413.26
1009.49
1020.21
536.80
727.74
1454.05
2003.84
1764.04
813.82
658.96
1255.60
633.56
259.97
311.50
525.75
460.58
842.02
886.42
901.89
968.16
1265.47
1110.72
531.65
530.95
752.29
824.63
553.64
384.69
1781.20
360.15
452.12
642.28
1059.72
643.54
870.44
1527.75
418.08
824.86
557.14
467.66
360.70
540.42
755.98
731.20
979.24
1104.32
1515.70
1882.05
993.87
347.74
514.70
349.24
383.92
948.17
1186.03
879.38
794.21
513.66
510.19
448.24
1160.44
2428.41
2008.55
1419.68
424.45
1261.26
1448.02
1536.95
1687.63
1436.00
888.28
552.42
358.33
391.22
795.56
1582.37
4223.86
1446.95
689.68
746.45
694.69
338.63
400.74
381.21
419.18
522.69
616.09
732.42
1111.66
1851.03
2089.24
1362.79
361.17
692.49
398.84
486.70
417.51
575.62
369.30
556.97
454.50
474.23
421.24
561.10
542.91
547.73
439.40
523.24
1534.12
848.66
422.62
832.42
910.74
1912.87
807.29
1031.54
954.39
594.60
421.12
296.33
374.16
787.47
933.11
566.35
1365.50
1041.05
417.94
623.04
556.73
509.75
1150.60
1368.31
661.01
581.63
350.03
380.69
460.14
658.41
616.11
322.04
477.43
1010.46
1752.28
1601.50
992.90
516.72
488.87
817.69
771.03
639.87
983.28
494.90
456.58
482.34
867.82
1273.55
1129.43
559.59
342.54
396.58
275.43
397.03
2909.97
515.35
502.28
381.49
326.32
544.20
681.59
631.07
483.38
323.55
365.50
497.08
979.38
1531.39
1327.68
976.70
698.94
626.08
466.96
668.99
1271.40
2319.65
3066.53
4188.17
4129.52
2483.81
399.84
1759.33
4225.54
4163.96
4199.81
3604.43
1677.24
397.96
346.33
401.59
1023.12
792.31
440.38
380.54
441.01
433.58
556.78
1106.86
1250.31
864.44
752.10
659.22
3022.03
437.65
1163.26
1427.01
516.59
520.87
1245.18
650.31
360.87
766.40
1760.69
2084.07
1893.19
1095.62
417.05
845.18
428.71
794.23
1576.94
1076.34
363.47
660.09
846.94
455.45
1110.50
1035.00
661.56
413.60
344.49
455.26
790.22
1078.66
695.84
587.43
557.69
402.28
1911.32
410.54
401.91
476.31
361.84
367.00
800.75
1614.07
1007.40
530.87
489.84
728.57
2946.01
1593.95
947.52
437.38
1369.73
1277.48
379.28
1080.15
1045.84
691.69
676.51
813.29
1196.93
1143.13
1028.10
775.84
359.80
410.95
648.36
483.52
381.99
363.66
341.27
579.90
3793.22
957.71
836.39
504.12
397.55
399.52
615.08
650.00
497.68
583.19
733.94
763.59
706.46
1349.10
525.40
344.32
374.82
775.60
902.82
644.89
421.68
697.21
494.39
368.07
512.87
549.68
589.06
304.04
743.67
776.99
346.81
356.95
543.74
480.33
318.58
520.07
833.35
784.72
2743.27
801.32
765.54
957.58
1710.23
2398.70
1518.62
1353.08
1323.92
1243.95
494.48
1316.18
2705.84
3070.73
2254.42
1002.20
350.14
524.68
819.33
407.73
795.11
1202.22
836.82
627.07
760.72
595.42
577.93
506.55
637.66
629.37
402.24
375.58
433.62
468.45
351.65
1139.53
3122.16
1412.72
412.77
371.38
513.63
1386.27
1720.15
1713.69
1732.38
1377.97
650.12
1809.54
2734.27
2069.45
1929.88
1606.59
994.43
326.58
762.18
1123.45
1484.83
999.25
449.07
852.66
559.02
934.19
748.36
458.44
741.78
932.54
1217.90
1765.27
2124.95
1991.04
1429.93
1488.47
998.14
970.18
493.15
1106.76
452.06
741.43
1429.56
1506.85
1523.90
1342.09
845.12
412.80
409.72
706.36
1485.62
1656.91
1691.65
1132.17
669.36
595.40
608.67
742.31
3828.91
387.79
374.09
357.62
378.15
304.96
552.29
1070.71
1122.55
618.38
731.36
1296.55
734.11
379.79
403.76
633.14
842.48
857.27
933.97
609.23
382.86
551.71
655.68
971.62
1194.10
1947.99
854.10
1369.01
1515.62
1659.85
1710.56
1474.73
844.23
808.61
906.33
390.24
918.99
1169.56
938.21
745.59
1764.88
1643.54
737.12
461.41
1438.82
1727.49
1372.45
989.12
3454.79
448.04
403.05
438.98
345.33
421.83
612.42
1150.59
1545.06
1447.72
786.52
325.35
2347.45
440.71
639.55
387.29
396.20
647.27
1328.74
1368.70
617.66
618.45
455.08
682.87
2820.66
1584.98
1915.94
1108.94
673.88
442.82
505.71
914.79
1039.62
936.62
1270.71
798.84
1060.27
636.42
544.31
381.91
490.41
494.61
617.98
541.36
493.17
513.42
439.95
606.80
687.92
721.18
522.51
695.85
713.17
762.33
414.15
356.03
380.10
321.25
434.52
529.80
547.30
2742.48
336.93
365.28
369.39
455.56
490.51
481.63
726.49
825.89
585.95
542.72
368.19
550.64
923.88
763.33
1364.18
1036.01
369.21
583.83
617.58
1314.10
1940.62
1930.25
1230.26
606.83
880.20
366.06
1056.56
1713.17
1619.52
1354.51
435.17
1348.64
2302.98
2616.95
2516.47
1901.80
1004.15
616.39
343.26
764.06
1333.09
2086.47
1910.86
2053.97
1502.69
682.23
717.72
1100.99
380.20
690.62
1471.44
1887.41
1376.68
622.91
1364.54
2795.41
2018.96
716.36
2917.45
1261.15
1124.55
1854.46
2693.59
1974.67
867.36
355.47
705.52
922.11
629.99
2138.29
2431.93
723.23
1390.29
2351.98
2088.07
1203.13
736.88
1077.58
1009.35
1402.40
1164.43
1366.06
439.01
678.59
451.67
389.74
378.34
322.02
436.93
555.17
556.40
458.27
650.52
2618.52
1116.99
909.59
619.59
456.76
395.09
756.50
953.70
476.27
1160.50
1184.65
397.60
1232.16
1672.42
2043.94
2200.57
1856.62
1264.83
882.26
1267.16
1831.92
1731.20
1425.47
635.85
1160.80
2219.42
2441.86
1741.27
689.51
349.53
350.97
622.61
703.25
813.89
843.92
2217.05
403.86
595.69
760.17
900.15
1722.00
2634.17
1832.27
659.22
987.43
1822.11
2272.48
2267.95
419.43
1000.03
2239.21
2305.94
1042.90
422.13
1377.77
1582.37
1232.11
670.24
1435.39
491.78
839.46
799.51
703.89
407.66
357.88
407.66
863.34
952.06
667.99
506.69
454.79
575.43
901.64
1138.14
1060.55
359.14
399.45
515.83
1243.81
1672.16
1941.22
1446.82
471.80
1186.62
1239.88
391.18
778.81
1273.49
1488.57
1679.47
1826.88
1053.47
638.35
1207.47
2394.18
1974.11
610.55
1255.32
1860.00
2206.41
854.72
764.42
1210.81
454.16
578.60
2767.16
1621.49
1461.59
470.31
435.72
462.52
823.87
627.15
444.02
1637.71
2343.98
1055.00
1459.96
503.22
373.78
615.12
547.64
671.85
751.78
998.28
1179.57
1488.58
1207.91
1044.81
1462.17
718.93
445.98
430.72
416.53
338.90
363.73
520.42
618.98
725.82
627.07
692.69
2754.98
1064.55
446.97
612.16
781.25
1499.86
1168.92
533.63
594.02
1207.97
792.60
324.27
1887.10
971.12
726.09
823.06
788.09
943.19
2200.16
2537.67
1139.10
603.50
597.70
810.67
1512.87
401.14
375.56
365.53
322.25
348.07
507.59
414.92
873.75
1126.06
449.44
706.09
2493.45
408.03
665.40
1694.07
1370.81
552.82
921.10
776.49
981.05
962.31
333.81
660.27
411.87
1392.23
2589.44
3228.36
1629.67
1057.15
1855.06
992.17
410.41
750.11
1759.88
3019.13
1637.93
414.20
334.34
394.69
628.69
1147.83
1319.20
1334.32
562.99
514.10
803.68
507.01
1155.98
554.73
550.67
884.01
1089.62
855.75
373.37
833.70
909.84
414.88
856.24
1079.83
1942.74
566.47
740.99
1012.69
626.18
424.79
388.07
479.99
911.25
1845.04
450.62
765.76
2455.01
1277.72
663.91
539.17
685.75
604.41
472.73
370.82
728.70
600.86
371.83
1122.55
1697.45
1618.97
1108.97
521.47
930.57
537.96
509.23
773.79
1166.62
2052.50
867.31
362.14
2515.69
736.39
572.12
431.46
316.48
654.11
563.06
370.66
384.00
666.30
720.97
788.61
1767.49
1429.88
496.43
516.63
374.10
572.93
482.61
312.03
541.07
517.10
834.29
1069.88
711.47
1988.87
389.20
632.26
775.03
598.50
462.91
327.49
382.50
600.46
768.09
388.94
947.88
1643.32
1465.71
673.73
1217.00
1717.76
544.37
621.38
735.94
698.04
498.65
578.92
1382.25
2018.61
2177.94
1528.67
929.51
597.59
2874.99
2399.23
500.64
780.26
1172.31
1290.21
601.58
1405.49
824.40
479.87
759.32
711.15
1650.46
3335.68
3012.14
2277.16
624.39
1746.75
2601.96
2990.02
2134.42
461.02
1026.84
1395.61
852.59
402.66
370.87
615.34
527.17
471.19
525.15
636.22
527.85
440.30
1364.63
1583.35
471.34
428.50
626.31
834.75
1052.16
981.20
391.10
1007.33
1339.50
824.14
339.37
693.93
933.95
1419.70
2814.27
3138.36
2024.42
853.40
742.10
2531.63
4202.46
3368.87
1430.69
626.86
1912.45
1998.69
630.03
1154.07
1205.19
613.69
1422.75
653.38
409.50
505.30
426.30
391.66
533.56
425.18
287.64
577.35
676.60
749.65
2578.04
908.01
436.71
954.45
521.17
588.91
753.51
948.02
472.68
441.39
481.24
385.34
359.33
1112.95
1308.12
1484.91
1395.48
1371.34
797.06
530.89
428.42
319.16
385.23
397.28
324.31
791.52
542.44
1030.91
954.87
389.61
275.47
411.25
1009.09
399.80
452.62
646.99
631.18
1520.91
529.58
691.78
500.37
516.16
808.63
1229.15
838.80
649.37
352.02
828.96
1384.67
962.80
864.58
548.64
1382.34
1425.98
784.79
421.20
457.09
577.11
655.70
425.69
445.70
790.03
1251.35
568.94
360.80
642.84
1454.36
1984.45
1207.90
602.01
386.83
1036.56
1116.42
812.60
488.94
738.37
1908.51
2253.83
1166.78
893.13
1411.21
893.55
549.04
626.02
448.91
757.41
1497.91
2267.51
2120.33
750.85
647.26
1034.34
854.42
675.96
390.17
718.79
1144.15
1409.46
1495.15
1107.92
979.82
655.34
1385.40
1935.47
2171.98
2695.84
1933.73
639.23
553.20
972.48
643.43
517.97
605.83
855.60
643.50
595.19
881.46
1000.19
992.41
1133.56
780.72
2153.41
833.18
421.07
639.56
663.38
628.85
1374.82
1640.96
830.66
1041.94
1165.53
1577.76
1942.69
799.41
684.09
1028.03
1600.30
1463.32
977.56
569.71
256.46
433.81
564.68
451.77
1467.39
998.95
361.17
1024.32
1061.43
920.74
1017.44
691.42
569.40
1111.47
1282.64
1267.99
1392.42
626.53
487.42
860.61
576.35
1299.84
1395.15
607.15
647.06
1198.27
957.48
789.75
1408.80
1812.69
1131.30
906.26
843.07
687.58
762.35
381.24
443.41
783.85
663.61
2227.49
3415.05
2206.51
1016.32
499.44
374.43
652.16
732.61
438.98
1221.65
2228.00
1570.36
702.56
431.36
326.69
427.58
370.57
1274.85
2906.23
3213.51
2789.52
1025.74
534.70
509.94
2253.81
883.35
1480.40
2328.59
2943.85
2476.83
780.83
617.40
1423.80
3184.94
4177.17
2713.92
1810.15
1139.98
353.48
544.08
561.44
392.60
335.31
524.72
432.79
279.98
567.72
399.79
1065.99
973.47
1508.17
1322.01
722.34
848.50
1378.63
1814.46
936.11
615.90
553.64
666.81
884.19
429.38
308.59
351.16
428.94
469.07
404.86
333.12
330.99
422.00
569.20
528.71
2299.45
552.39
463.81
579.05
551.86
403.13
367.97
456.33
458.45
570.48
781.24
562.61
515.75
1010.96
425.00
442.94
402.17
451.16
306.34
437.58
873.54
1187.47
955.28
990.08
723.04
454.43
580.24
852.08
823.29
492.06
531.87
859.24
930.27
834.38
1048.31
2357.56
1594.94
426.46
1265.39
1431.79
1438.80
624.34
460.14
671.24
2207.05
1749.19
432.55
454.19
429.61
803.21
1749.22
2264.50
2165.74
1550.10
509.20
2102.24
3273.05
2929.74
2192.73
1205.05
538.56
1951.91
2176.38
1483.24
566.69
975.70
629.07
753.35
1189.84
1253.20
928.97
822.58
2425.52
726.74
368.03
402.92
825.86
470.69
521.76
395.22
547.11
857.04
383.05
1067.15
851.23
955.26
388.33
440.75
703.38
998.16
1468.43
1413.34
864.56
680.84
740.11
711.26
553.89
1634.18
672.95
508.55
806.47
469.39
1337.80
1378.65
536.57
846.77
982.49
1219.75
1986.45
3079.46
2835.54
1417.05
395.19
1376.89
2756.14
3803.95
4269.26
4130.45
1843.87
391.99
2462.92
882.52
821.95
581.47
674.58
1354.36
2668.37
2569.11
1336.16
536.39
512.35
580.14
1371.10
1471.16
1852.80
1499.66
748.58
710.15
370.17
1200.85
690.72
907.66
1550.02
1303.40
968.19
429.32
999.33
885.40
535.01
530.84
484.76
791.77
1069.38
979.87
933.02
770.47
506.53
433.57
1112.03
590.64
376.90
737.26
1038.61
525.53
485.75
433.55
602.02
1854.28
2124.67
416.39
949.17
1304.87
915.80
451.43
1441.90
2103.54
953.96
418.80
589.14
915.41
1264.98
1122.27
1856.85
2087.21
2034.19
750.37
279.32
323.02
358.61
407.62
715.05
346.56
635.01
559.29
444.57
357.77
394.89
292.92
413.67
437.94
527.94
661.43
722.65
831.45
2177.10
439.82
309.22
324.70
379.21
258.17
289.52
568.89
682.66
932.76
1466.22
1453.82
1047.25
935.07
446.86
499.29
298.23
385.56
839.65
1089.78
1197.80
690.58
594.49
598.91
596.03
812.02
306.11
585.74
405.18
505.48
870.67
690.59
737.42
1198.03
1534.93
1431.72
1960.55
3638.33
1733.95
496.24
491.71
988.35
1201.65
1521.41
1626.57
1452.83
743.66
344.50
2432.17
421.26
1001.05
1651.25
1684.76
1741.23
1485.45
463.01
1951.20
1979.73
1443.70
1375.41
869.36
400.40
809.28
908.36
638.00
656.85
1357.59
2532.25
3153.08
2636.50
1589.30
3267.54
638.68
1419.33
2152.08
1427.59
380.50
2044.72
2141.15
1453.72
655.45
749.34
2385.25
1475.94
1145.16
335.01
479.04
414.05
372.58
604.19
1335.42
2042.42
1786.17
1135.57
1489.67
391.93
631.40
906.88
627.97
510.58
1348.26
2320.87
1907.46
719.08
337.05
861.64
1962.63
1591.97
1173.49
765.78
776.75
1037.36
1349.85
1541.13
1540.18
1231.19
1014.45
3246.11
589.76
464.98
377.48
650.04
1206.04
1523.08
1412.62
1900.09
2030.55
1138.82
475.68
959.73
367.09
1217.32
1505.44
536.56
1700.87
1926.52
2228.75
1934.94
1700.43
1013.36
1089.97
793.10
380.93
467.75
407.47
656.27
547.00
654.79
536.65
767.12
791.16
415.16
1723.12
306.24
331.39
552.64
781.76
558.49
320.60
423.62
371.24
584.71
742.48
783.27
627.29
1046.05
283.69
1092.16
1102.12
411.98
1038.39
1091.25
891.97
789.82
539.93
373.98
270.46
885.17
709.47
641.06
731.76
795.00
685.47
867.60
991.78
802.35
356.08
1017.07
675.21
606.98
1098.65
460.41
540.66
748.25
890.62
651.66
574.23
409.68
476.91
911.85
1350.44
1161.53
2055.66
375.91
507.30
575.41
717.16
959.13
1221.46
724.11
395.87
484.78
872.57
1285.65
2423.48
1180.90
1118.75
2068.92
3071.31
3297.87
2624.00
1353.37
438.91
1695.75
2563.52
2420.50
1004.94
780.51
775.82
328.34
554.97
450.34
814.41
975.47
372.98
1152.75
2579.47
2923.39
1517.57
564.81
808.79
1646.88
2059.84
1177.06
730.26
851.91
446.20
398.28
880.27
1395.99
419.62
1152.20
1428.45
1452.55
1307.15
805.04
625.63
348.49
303.53
518.86
852.65
1264.21
1266.78
1641.65
1848.76
1290.09
408.56
1433.72
936.42
908.02
2376.07
2508.96
1807.90
518.55
1177.71
1478.59
806.93
541.02
741.75
526.44
514.06
1008.57
580.96
374.27
818.55
407.18
373.40
541.23
1130.32
1511.67
1493.86
1110.13
460.35
666.35
782.05
1275.59
1425.47
457.09
697.43
1486.86
2777.03
1638.56
554.70
489.90
298.42
314.52
357.74
617.90
449.38
313.73
621.32
564.61
616.92
359.71
377.88
640.61
763.42
772.16
662.52
446.47
419.40
676.23
610.58
733.87
903.84
1103.02
939.92
660.30
310.30
553.08
886.20
1708.59
1980.15
2199.28
1040.24
583.27
662.11
669.24
270.91
359.19
417.99
539.38
382.05
658.20
1064.85
2698.63
1728.98
1461.07
872.20
387.33
568.26
586.08
557.14
332.02
353.94
497.43
477.18
1581.74
465.29
562.32
529.76
493.07
286.23
309.83
445.87
590.57
545.18
419.55
363.34
521.13
716.94
550.40
545.52
528.31
462.94
722.88
644.18
371.99
372.49
668.15
719.79
740.82
663.33
466.17
361.06
212.14
323.80
318.66
393.35
582.98
617.62
700.60
676.80
648.00
525.57
1529.78
465.26
571.75
717.56
761.00
650.79
407.90
356.88
289.19
331.63
595.24
818.68
877.34
1401.14
762.84
698.40
430.72
288.58
376.85
545.11
546.55
359.60
335.04
314.85
327.69
387.31
639.73
675.71
620.49
342.42
469.51
288.84
342.87
362.11
272.29
474.44
575.71
464.72
1562.28
590.50
579.09
553.86
762.47
784.65
596.58
393.54
384.31
619.36
1090.91
1207.34
1403.02
1379.28
911.98
407.95
316.05
303.87
416.80
688.34
703.89
501.68
376.01
341.55
487.76
859.80
556.48
695.73
969.11
871.46
1097.97
1443.01
1465.64
1207.41
373.93
872.00
1382.11
1455.72
332.45
614.32
890.83
817.67
575.67
233.05
564.32
428.37
563.20
658.76
583.45
2237.84
386.31
306.74
669.07
723.96
668.75
603.50
1269.44
1750.39
1472.86
845.51
399.65
2368.07
979.29
844.34
280.45
812.58
1171.81
950.00
712.05
717.12
775.50
808.77
847.35
877.13
1160.56
975.18
691.46
378.39
389.39
391.42
747.28
1066.23
1199.59
907.30
645.25
281.52
726.81
327.38
440.06
403.96
462.12
518.28
561.65
498.35
470.56
426.07
492.47
601.92
956.31
1440.03
1424.64
929.81
684.90
385.30
256.33
237.15
381.64
429.69
439.36
519.53
793.04
1345.20
1000.79
660.28
318.16
267.99
363.07
845.18
1323.77
1608.09
1689.82
908.33
676.07
1833.37
1486.88
1264.43
564.34
375.64
532.48
746.68
798.06
625.67
353.19
326.76
422.28
1574.76
503.26
449.36
678.84
580.69
569.12
727.70
908.26
1086.78
928.35
556.29
456.58
401.24
635.29
527.91
387.75
266.50
267.56
335.33
443.68
518.50
715.73
768.56
824.80
915.29
1903.57
936.42
831.14
722.70
529.58
389.65
363.25
657.87
956.67
1044.96
862.97
623.98
569.67
1064.93
404.22
319.71
518.30
503.95
327.41
265.33
264.20
280.97
350.35
307.58
302.13
333.90
492.20
479.21
379.07
436.83
889.06
1058.68
854.26
768.72
723.04
679.23
600.49
461.91
1399.38
461.69
317.76
322.28
394.59
351.52
297.03
409.07
515.59
655.24
1049.95
1429.94
1496.30
1461.90
1312.57
1324.17
966.45
611.32
570.75
504.42
630.41
457.86
440.62
523.04
519.61
467.66
436.53
319.36
245.01
386.80
312.27
287.26
393.38
502.20
393.46
346.81
390.32
2300.96
758.68
933.02
938.95
569.10
610.21
1082.59
744.97
381.86
664.95
736.10
585.38
556.91
1105.95
689.04
872.89
1185.54
1478.59
1285.60
952.31
621.53
429.51
433.37
648.76
683.68
838.99
380.77
693.24
1157.64
1555.24
1331.84
722.69
869.38
1944.95
581.38
1332.39
2670.14
3209.38
2203.72
593.01
823.51
1036.23
617.32
336.06
831.10
968.01
858.81
842.09
804.00
1228.42
571.75
599.22
455.61
339.47
363.67
345.76
458.52
590.98
360.27
364.18
387.48
332.21
637.46
477.31
268.95
561.24
576.14
381.32
284.94
296.34
338.90
475.46
568.88
758.61
1387.50
742.77
662.95
537.01
423.39
427.53
380.67
317.65
370.65
608.42
612.05
587.07
534.24
1189.58
590.28
704.68
494.50
449.74
321.68
343.95
344.61
345.65
315.03
324.11
490.20
500.82
627.35
604.26
517.27
483.21
587.88
515.34
353.29
436.64
494.40
606.51
493.90
644.90
1325.97
1174.72
1382.02
1799.88
1717.27
1140.01
771.30
616.01
617.26
982.49
1293.68
1164.03
749.49
382.43
601.42
519.50
618.12
1054.30
1526.38
1534.14
644.51
452.17
471.42
246.51
550.81
324.58
304.52
379.26
656.50
528.77
335.20
593.68
740.43
836.86
836.91
901.69
626.14
583.24
596.12
520.27
268.20
522.20
486.39
349.15
707.97
587.48
392.89
883.54
770.18
3193.83
471.39
560.89
720.48
870.94
834.56
839.11
786.64
755.53
676.87
664.74
518.09
639.70
1204.71
791.05
837.38
894.83
692.11
683.65
659.10
663.48
322.29
1383.48
1654.89
733.68
2619.95
855.29
834.17
609.19
447.95
492.31
432.75
517.05
731.54
875.34
574.46
382.15
370.41
686.95
524.17
715.53
966.83
937.94
482.49
223.81
288.81
303.81
392.87
288.29
670.16
870.74
772.76
535.77
427.88
313.72
470.01
347.53
307.23
266.63
303.06
465.57
614.17
665.33
1348.21
582.28
450.62
422.96
651.35
928.86
957.16
1061.34
972.80
898.42
794.10
842.75
747.93
1173.11
597.50
431.59
429.04
744.46
867.78
503.88
281.88
361.13
668.90
660.05
280.93
672.75
1079.93
866.19
696.69
730.41
680.22
339.41
244.95
276.95
366.57
399.26
599.16
545.84
1390.62
443.45
372.94
325.44
474.29
889.39
1207.32
965.60
611.22
333.96
568.11
656.84
542.54
758.59
483.25
692.70
601.87
398.87
399.93
389.45
405.23
420.87
323.60
330.14
431.79
352.23
488.95
381.61
368.31
437.55
399.90
443.82
519.86
517.19
417.49
341.79
437.26
346.29
1390.23
843.21
818.49
773.43
648.99
496.16
468.71
591.37
581.32
403.55
394.87
415.44
401.69
978.61
495.74
580.32
558.04
511.35
356.13
462.71
635.16
921.42
1001.52
740.69
390.16
379.63
564.70
456.70
463.77
535.12
485.03
413.64
320.09
594.16
340.42
714.66
836.53
767.94
858.16
1026.57
869.00
889.48
452.61
346.88
424.09
857.66
970.98
390.19
497.89
855.12
1111.89
2012.03
828.16
584.36
376.85
449.54
485.58
591.17
330.94
328.57
650.23
639.61
573.90
559.79
399.85
494.71
737.07
1055.77
1110.12
780.90
402.16
293.82
329.64
511.53
571.64
343.63
1745.02
732.72
804.41
882.50
997.37
951.63
899.95
588.92
673.45
1106.18
1343.84
1360.60
1128.12
728.93
371.97
1088.55
1423.16
1002.92
413.65
311.23
320.62
417.36
525.05
667.47
1767.35
391.10
448.89
414.39
378.04
409.22
513.44
916.03
1643.96
1544.81
1091.56
673.51
2787.72
899.17
1585.68
1513.33
703.58
297.81
390.67
315.21
300.14
316.24
274.19
308.41
1374.43
340.44
345.23
396.97
466.08
569.92
830.64
804.39
707.56
604.63
745.27
897.28
915.41
1135.41
452.57
1350.01
934.66
662.23
1356.04
1509.22
953.94
1168.42
1414.13
1232.56
870.75
648.21
307.32
317.03
356.31
344.22
531.44
667.78
457.45
296.75
266.55
297.83
345.20
1743.80
686.53
605.80
315.11
358.79
255.20
293.93
339.61
315.26
294.64
480.15
544.04
525.35
565.61
423.64
553.32
979.86
1253.41
1442.36
1641.76
1133.57
416.64
625.87
905.11
1066.68
1328.36
995.90
525.64
320.84
387.49
551.60
732.89
842.57
830.82
805.22
701.30
616.11
3079.53
521.26
541.55
671.87
756.03
985.97
793.54
367.37
348.71
501.49
298.40
597.87
1293.44
1762.44
1169.29
1300.41
1651.45
1766.73
712.54
470.63
1454.79
1743.34
1880.24
1778.68
2392.84
480.72
491.21
693.16
951.99
1129.61
977.28
457.80
760.44
1150.59
1230.13
722.46
431.36
550.95
984.19
1216.62
1105.68
976.92
571.40
471.89
411.62
302.37
475.73
490.19
1135.88
382.62
473.51
947.10
1242.79
829.87
633.33
965.57
1005.90
1091.07
930.48
923.10
1752.70
304.76
310.05
384.75
268.79
260.45
310.26
434.37
460.56
571.99
717.60
838.41
673.95
798.65
403.86
362.26
683.95
1001.87
1073.10
822.22
881.60
775.89
415.97
371.60
317.74
1722.10
1230.88
1149.53
414.22
822.55
1446.29
1535.88
985.18
363.38
724.58
1127.68
1260.11
1515.12
1122.08
580.65
375.38
1190.51
1392.96
1076.66
776.16
315.96
439.36
446.45
1391.74
775.98
772.18
557.71
327.86
645.20
1459.77
2069.33
1081.72
617.29
724.39
538.71
3114.00
850.18
1056.70
674.91
429.31
444.15
567.33
643.56
754.73
798.87
580.82
516.22
913.57
1130.71
611.14
431.50
479.11
369.56
551.02
592.27
456.34
380.87
467.23
1317.07
1826.00
2404.69
882.14
509.95
404.62
319.54
299.31
553.63
1045.30
1125.76
689.35
341.36
378.44
1736.35
389.24
292.04
964.43
1332.89
574.53
462.33
665.24
543.02
615.27
920.67
1046.57
994.98
805.52
357.16
521.41
274.25
505.44
580.76
531.51
541.36
857.32
880.96
937.65
1377.56
2256.59
1767.11
2370.42
2472.96
1153.28
790.10
693.53
444.89
1262.21
2468.58
2461.39
1469.64
635.19
675.40
557.53
391.61
396.69
627.84
607.99
395.33
500.20
1099.14
2322.64
3066.18
2408.60
1195.72
435.15
650.62
766.73
235.79
379.11
385.35
339.86
378.80
358.18
378.96
618.37
618.80
819.75
1262.97
1643.79
1883.61
1920.37
1497.42
647.54
914.44
1895.91
3829.54
936.91
1495.50
901.75
403.27
874.25
1130.69
929.05
689.36
935.28
806.22
552.42
3178.83
467.82
946.42
1152.07
693.20
466.71
743.01
524.73
582.29
572.30
556.73
812.54
922.60
1326.73
1115.43
489.17
396.23
321.70
366.98
439.56
365.40
647.92
1546.82
1927.46
1327.14
962.67
342.64
517.09
935.13
1637.36
1317.25
783.43
428.47
768.75
944.83
314.92
357.70
1791.82
1127.54
604.96
976.25
1642.70
1710.37
1107.25
357.36
412.93
1111.93
1762.37
1572.99
1073.69
646.86
686.64
1412.84
1410.18
521.94
564.62
589.15
1309.98
1341.39
828.77
1400.50
464.70
862.12
806.57
457.49
578.26
854.59
1609.81
1464.73
402.49
306.18
464.43
1931.12
774.84
447.98
498.25
898.30
611.31
660.05
1077.54
1202.26
720.66
357.60
655.50
3801.73
566.73
390.76
461.32
434.69
725.96
1089.81
1120.70
1137.48
896.60
615.41
353.06
3221.48
308.99
373.81
357.52
563.58
862.80
543.20
398.17
1108.26
1989.67
2004.38
1525.59
918.44
935.14
345.74
854.93
1013.66
1084.92
673.61
333.66
404.22
738.18
1387.23
2434.23
2630.04
645.56
1264.61
2723.32
2862.68
2144.72
1366.37
368.46
341.10
328.93
365.80
449.67
988.33
487.27
384.37
389.64
365.89
721.20
551.04
452.07
736.96
919.21
868.85
618.79
393.13
499.42
1491.49
2948.97
3726.53
3382.42
1633.54
428.55
402.73
1220.43
1423.71
818.85
1765.50
909.68
293.43
416.92
622.91
895.92
548.34
482.78
1445.71
1224.06
665.44
591.19
1822.85
1576.24
1908.76
1488.71
841.04
850.45
3171.23
3357.57
1924.42
975.97
1259.86
704.69
432.41
392.78
290.77
693.24
871.54
858.37
1389.74
2075.83
2858.84
2171.20
1333.23
636.45
865.39
1852.62
1822.12
1826.20
2563.91
1852.65
844.83
326.53
465.36
863.03
1742.74
1813.95
653.51
377.41
679.02
1240.79
1461.02
2276.24
3050.36
2291.21
1154.52
655.61
3132.30
1936.09
840.11
315.98
633.64
559.62
455.75
940.61
1944.76
1719.25
981.36
397.64
2161.27
649.83
418.68
787.62
727.89
632.75
416.75
616.96
810.85
520.87
452.49
2017.04
1934.97
475.78
1298.85
1626.48
1409.19
632.35
395.41
720.76
1581.76
1268.90
697.76
484.01
1723.91
518.80
630.78
483.70
983.49
1564.06
902.73
469.11
400.98
577.95
470.64
1001.15
1336.09
935.62
902.98
739.08
406.63
503.85
341.72
370.63
364.61
731.63
1087.32
2247.35
1410.16
752.33
2501.66
3743.55
4243.05
4271.41
3482.46
592.55
2206.26
3394.99
2938.14
2247.45
1469.03
623.49
969.83
672.84
324.25
309.45
365.86
465.25
1042.93
1294.20
1085.08
366.60
770.93
808.27
534.22
867.86
1021.83
829.44
445.27
407.33
520.56
1373.50
1626.35
1180.58
1471.82
592.20
557.80
946.58
1126.80
532.33
424.85
792.58
907.80
567.91
402.27
349.48
822.49
514.85
884.20
654.32
626.35
649.99
480.72
421.20
891.37
1592.85
1088.80
579.06
915.08
730.67
369.44
827.73
591.06
357.56
864.63
1633.09
1943.52
1672.40
1560.86
1428.47
1335.07
1400.08
1421.65
1217.70
1130.29
1596.82
1526.17
427.34
1833.74
3121.13
3725.76
3310.64
2511.33
876.49
460.27
460.69
424.93
1058.07
2211.37
1595.73
614.39
2860.18
1821.06
589.25
689.20
701.30
508.10
558.86
605.12
815.27
837.99
350.65
666.66
451.63
834.66
1880.26
1771.78
1826.27
530.91
374.89
895.68
1019.01
588.16
819.22
1337.57
1098.15
795.04
2004.03
1942.11
1653.31
755.53
424.26
381.10
432.23
360.26
672.30
855.89
394.02
883.27
2100.37
2822.85
2660.67
2494.32
2995.95
2227.23
672.11
322.42
355.03
683.80
2334.66
1502.25
510.45
1280.40
2630.71
2391.24
2205.79
1547.75
421.13
1121.71
439.90
1462.05
505.19
786.47
830.15
531.54
335.82
413.89
692.57
995.90
1393.67
1082.10
852.78
754.27
741.95
928.42
1421.46
2580.76
2136.76
811.84
775.41
1760.84
1384.59
548.86
397.35
487.70
562.21
1007.94
391.09
316.29
548.47
513.05
377.01
373.09
666.60
1215.14
422.09
598.60
881.13
3044.09
2570.84
2045.25
1207.53
531.87
1182.68
575.07
583.72
1115.65
1427.70
940.92
351.51
811.76
377.90
424.80
371.27
334.68
1366.52
3086.97
3278.85
1213.31
335.20
442.61
637.89
1276.95
870.99
990.93
1585.72
2764.91
3042.58
1579.09
582.10
445.26
744.35
294.94
2918.40
1024.24
2115.16
2711.69
2296.56
1109.72
377.98
593.47
692.69
354.41
534.87
1200.19
2967.72
2646.65
1193.82
345.00
447.84
315.52
502.95
1021.50
885.53
745.18
494.20
1650.63
4188.16
1666.21
496.24
535.41
661.04
741.75
750.82
479.86
339.83
704.78
803.33
633.85
3303.16
4201.56
2245.22
674.76
315.14
469.20
987.12
660.94
366.43
553.88
807.33
1150.00
1131.81
770.59
626.83
626.51
534.52
641.74
1157.43
2052.36
585.98
588.30
1144.11
1231.03
1231.26
1267.76
2219.09
1671.39
496.66
330.61
871.41
1823.72
1556.18
662.68
370.72
403.61
794.09
809.35
451.90
350.29
428.03
608.36
744.00
658.88
482.57
359.39
273.91
698.02
769.15
819.57
718.19
1610.74
1423.75
751.52
377.09
847.34
468.24
2262.97
2685.61
3246.23
1747.67
463.11
1452.90
1116.43
506.39
593.87
1455.83
1527.38
565.08
630.38
1464.83
2036.83
2767.83
1473.70
515.26
811.52
744.03
557.42
370.67
381.74
492.48
877.84
424.86
1997.86
2673.52
1487.56
833.06
721.70
926.71
577.85
356.87
1216.14
1023.88
587.29
306.55
598.21
2233.40
1519.33
871.75
834.45
806.90
579.72
604.31
878.97
474.77
771.07
1171.49
1243.99
1221.10
634.68
1108.11
791.31
416.35
741.08
1165.65
1178.89
483.09
519.74
765.86
610.18
1800.29
761.54
733.41
773.71
1050.51
1143.55
392.47
2231.07
3168.79
2562.93
2360.84
1705.47
965.65
970.35
1602.68
1444.99
506.35
604.08
439.44
614.87
577.26
913.10
970.67
1160.88
1674.08
924.75
400.52
750.57
454.88
1073.23
611.10
544.32
681.31
675.51
552.26
447.01
2326.83
735.19
588.32
402.39
358.22
582.67
657.95
1004.01
1210.38
1163.34
559.49
436.85
2742.61
1463.96
784.28
440.65
568.98
1013.82
2328.38
2949.23
2719.67
1659.28
1557.15
510.46
991.78
1523.91
2274.16
2276.53
1478.85
437.50
509.19
405.26
834.30
1020.76
777.95
693.17
974.52
1161.93
1328.55
1337.68
731.45
811.04
1114.69
1334.37
969.40
1094.78
3038.04
3471.79
1327.58
510.35
341.82
496.70
578.81
351.29
471.12
632.19
359.19
438.20
343.17
649.44
1157.21
1807.01
1767.85
988.31
511.21
1643.66
3798.11
3231.11
516.34
1480.29
1086.78
1493.97
1405.40
2705.25
1898.96
845.24
414.63
433.92
439.36
411.74
338.97
437.01
566.11
1102.42
437.70
1435.27
1465.23
1278.82
1650.53
1030.38
537.96
405.10
407.70
708.71
2774.70
977.18
578.31
1445.68
2373.17
2240.60
1490.06
598.14
456.86
453.67
476.55
1080.32
2995.79
2648.28
685.38
2200.98
3669.12
2279.57
1259.38
994.28
527.09
1712.15
1915.86
1387.32
643.44
362.39
395.89
1429.21
3176.03
2945.38
1080.77
533.89
2281.41
3596.03
3420.28
2771.21
1397.74
519.10
543.53
364.36
451.41
780.79
504.26
465.40
575.40
494.17
333.89
1449.90
2816.54
1475.42
363.57
556.58
1857.90
1744.85
2123.84
1335.79
633.24
1561.49
2767.96
2112.41
1788.28
1485.32
762.41
486.98
523.26
361.89
558.45
1339.04
1886.19
723.52
1165.87
2283.07
1226.82
708.82
661.62
331.88
702.80
1465.08
2176.38
2305.61
1192.96
3284.68
910.30
337.14
684.97
542.65
375.80
593.91
435.52
499.64
336.72
1114.14
947.22
1040.58
1079.24
514.71
744.49
702.62
391.76
532.19
606.68
802.62
784.71
1999.27
3534.60
3341.11
1746.42
407.82
671.73
1774.99
1786.93
2303.94
1777.19
485.36
494.15
579.46
563.76
1202.41
624.26
480.08
705.31
1556.30
1808.88
497.93
2594.46
3755.39
2161.11
369.25
1437.16
3717.54
4233.97
4187.43
3395.58
889.86
1393.24
2678.23
2616.09
3935.04
2660.91
388.86
1212.81
786.82
379.16
995.97
1273.41
611.36
499.53
1118.56
1052.10
812.38
430.28
632.38
708.23
440.85
368.72
386.00
362.74
463.06
755.91
595.74
495.85
739.64
609.03
578.03
2543.58
1218.59
1151.45
770.89
1129.58
1430.59
736.76
722.12
1311.35
1277.13
717.02
368.37
981.22
1470.23
1716.40
1177.87
1195.75
2211.70
2615.85
1575.94
762.51
2515.76
2261.32
3390.55
1106.55
530.55
876.97
459.00
1452.29
1763.90
1373.38
1153.19
565.30
345.87
2578.86
723.26
1002.50
446.25
1460.16
2728.39
3365.53
2755.71
974.95
786.48
2225.64
2558.24
1421.42
670.82
2052.46
3539.35
2472.20
1014.77
378.23
434.42
344.88
419.60
1059.10
2758.33
3423.28
2277.65
961.96
475.38
1366.46
3012.83
3400.59
2305.98
616.27
1017.02
2016.49
2487.24
2159.07
653.77
1255.03
1051.87
467.24
583.61
701.60
526.33
463.48
434.42
1145.62
3243.46
3117.29
1219.19
526.02
439.98
383.16
941.74
405.88
1859.00
2698.52
2067.40
1105.45
383.89
370.81
966.90
2460.62
2992.13
2523.38
1382.46
346.19
381.64
991.94
1936.62
2646.51
1649.08
484.38
630.93
722.93
760.74
728.19
627.38
396.64
1686.69
1853.72
1789.26
2481.29
2504.01
1159.67
1094.86
2755.70
2060.46
388.76
551.18
369.54
617.25
758.46
1670.79
539.00
1005.32
1205.00
611.61
708.83
874.81
1661.92
2512.44
1944.11
857.38
3507.35
3568.52
1506.69
1165.50
393.99
1565.70
2127.40
2793.91
3413.49
4251.86
4192.37
1901.42
2335.16
4130.21
4247.88
3188.16
1452.62
1004.89
652.93
460.43
445.97
604.92
613.63
2659.02
1353.60
950.87
673.26
358.85
870.02
418.55
517.30
908.21
846.27
526.69
839.15
1151.36
954.56
2382.34
2594.39
996.88
676.04
1185.37
438.89
1108.69
1418.74
676.64
957.65
2540.18
698.33
517.62
643.73
922.82
2241.94
2442.65
1933.33
793.88
750.68
366.86
354.72
1552.36
426.62
386.45
1092.30
1815.44
1435.06
819.54
534.86
1121.55
1341.53
793.29
1397.22
2014.55
403.64
498.47
356.82
500.33
348.65
1336.31
2635.70
2523.55
1492.91
681.66
2733.52
2676.95
2370.52
2255.38
1803.85
1240.73
801.98
1272.32
2712.74
2954.04
2264.71
1308.56
497.24
2280.47
4297.41
3588.97
1513.19
420.26
330.69
979.37
939.10
1132.81
1866.64
1558.11
694.71
694.04
2172.53
3065.17
2870.23
1776.44
733.97
411.74
380.36
392.53
2369.74
684.68
861.36
882.36
931.01
795.61
637.22
516.60
404.17
685.66
1415.76
2311.37
1459.98
581.38
597.75
371.63
1227.10
1459.83
1166.68
543.42
1485.25
2001.93
2789.60
2385.43
1461.92
979.38
1437.99
1544.02
1133.61
985.32
554.75
804.58
1067.91
1430.60
689.97
1030.65
1068.76
1025.89
740.36
333.35
1021.42
1910.10
3054.26
1173.59
1384.70
3342.74
3626.31
2451.17
458.69
2030.77
2411.06
2056.13
625.94
978.66
2102.69
2563.76
1832.65
879.38
3022.49
389.60
383.06
360.87
770.50
920.66
407.31
930.77
1166.83
570.14
373.74
1097.17
2796.11
3107.26
1532.17
578.01
1027.60
1001.78
1370.77
1919.47
1757.22
988.89
425.11
1080.20
1151.03
1387.04
3279.47
4155.22
2379.19
605.62
708.67
424.76
2448.81
4264.65
2867.52
1746.06
450.76
614.36
406.95
520.85
506.99
2511.78
2596.64
1181.09
436.82
1437.10
2294.06
1375.52
826.39
394.37
358.24
619.59
423.82
495.55
485.26
504.95
388.65
712.40
941.80
1116.82
412.17
667.43
943.87
938.00
998.87
2179.26
2318.35
1189.27
1064.33
2535.60
1245.05
1055.91
1413.68
2016.73
1696.56
764.97
546.70
638.58
1177.10
460.81
294.54
357.84
1895.47
375.08
868.85
1341.06
1176.16
449.74
502.11
795.43
534.97
457.66
773.97
1166.07
2632.46
1999.86
1170.10
433.32
423.60
1479.08
2117.08
1928.00
976.69
649.15
1292.88
860.69
466.35
855.86
1339.69
1902.36
1803.85
1411.97
770.67
414.20
354.74
735.78
1345.23
1878.65
1560.48
952.42
322.05
408.75
599.64
697.33
1014.37
1730.38
2171.04
1411.85
399.79
4210.21
1952.42
452.97
976.64
1379.13
1122.49
1069.23
866.94
616.53
667.32
1134.81
2007.22
1519.95
976.84
2182.09
3385.44
1649.63
888.58
1142.19
932.32
587.79
346.06
739.93
3312.17
644.54
374.90
282.11
594.08
763.61
511.22
369.41
400.00
727.42
1463.84
1646.94
1630.42
710.94
638.41
756.94
862.32
1234.73
3003.23
4233.98
3249.20
1336.33
452.80
413.33
2008.03
1400.93
2287.68
1576.30
654.00
309.42
1579.60
2691.91
1596.82
405.09
496.64
965.27
1377.87
1106.71
667.72
570.04
988.60
516.69
750.84
1543.79
954.41
1571.12
1291.84
570.48
666.75
1988.46
2284.32
3307.10
2962.83
1467.98
413.09
394.55
700.11
936.43
629.94
1606.12
668.40
1543.55
1361.82
943.48
410.40
431.34
375.93
336.55
487.48
1074.64
1311.60
2083.38
409.17
1402.05
1898.76
2469.42
1947.93
553.39
626.27
654.46
623.22
419.83
354.45
546.13
602.56
485.34
467.21
434.44
709.58
612.97
631.80
448.77
395.49
764.19
2063.27
1685.31
1614.95
1965.58
1431.33
714.48
368.35
827.57
957.12
657.15
2879.19
4011.28
2216.03
1462.00
2085.48
910.72
1075.79
2838.38
3426.03
958.37
1288.67
1492.84
608.81
446.96
804.14
323.36
324.73
604.35
775.56
784.01
729.30
841.84
827.40
407.33
558.06
820.87
909.19
1179.52
867.40
935.79
536.67
349.17
484.50
528.10
531.65
385.10
854.70
1031.52
762.52
2001.39
958.20
1612.71
1425.03
633.30
404.08
1438.93
2811.08
2711.56
2268.24
985.83
475.75
1289.53
447.52
509.13
400.71
423.58
236.56
432.32
848.06
724.96
374.71
720.24
1036.29
1772.39
564.23
463.03
412.25
421.94
695.57
321.37
454.05
1614.12
2407.86
2094.20
1964.23
2150.11
458.51
1384.70
1643.23
1353.96
560.88
371.60
337.98
430.61
424.44
664.55
1058.93
1445.44
662.69
426.98
306.05
352.25
602.75
457.37
798.33
792.43
711.91
538.08
794.92
2066.34
1788.98
2297.78
2432.72
1472.83
613.40
999.43
1113.54
379.67
1062.65
1634.65
1118.26
428.65
688.96
550.21
896.99
1578.84
2101.11
1736.33
641.39
1332.38
2199.96
704.40
1466.46
356.95
808.67
1510.44
1526.79
2506.82
3046.46
2061.06
861.21
2334.57
3328.41
4218.20
4210.91
3553.75
2241.63
457.68
1553.58
1926.17
996.52
705.57
815.98
1178.39
1266.31
1198.70
937.26
595.79
321.57
340.98
566.67
506.50
367.70
564.49
948.87
1023.08
291.86
1181.41
754.73
798.30
1048.81
1588.48
2291.23
2729.56
3196.71
3165.84
1681.80
747.39
3012.77
1863.78
791.25
430.19
2627.42
4242.63
4253.45
3644.25
2224.91
509.55
1032.89
1703.62
1133.59
1065.06
1952.80
2406.42
2349.82
2487.87
4226.90
3618.90
1398.92
468.40
522.70
576.31
541.92
604.39
692.80
600.58
418.57
563.22
305.51
1043.29
1197.97
651.02
282.49
472.81
665.16
1060.38
905.16
642.50
759.09
778.73
973.05
1271.88
1432.00
1805.20
1492.76
1084.57
802.17
1325.49
2017.39
1210.07
672.71
2324.68
2945.62
1386.44
351.77
370.19
502.35
451.37
1014.12
2033.62
2890.19
2895.53
2331.02
1591.16
624.06
2235.12
4241.75
3279.88
724.05
3394.01
4238.02
2975.52
1468.60
786.66
951.79
1942.78
2258.85
2149.73
1600.88
565.70
418.58
745.04
464.91
847.75
1104.85
1097.08
1045.70
421.35
560.17
684.74
2010.31
351.64
302.00
517.86
659.24
596.44
1094.41
1993.47
1495.87
1160.41
1072.42
654.94
1590.77
703.89
637.58
746.48
410.12
492.63
518.13
1972.23
3247.66
2423.93
882.89
358.38
801.28
470.59
378.98
626.61
353.92
683.14
435.39
374.31
1036.44
1710.99
1204.54
362.32
690.27
888.21
991.25
817.80
458.15
2013.86
1317.95
391.70
521.06
969.51
1428.55
2236.14
1358.55
542.96
812.66
1959.91
2541.78
1908.83
504.79
509.12
375.11
388.87
316.81
579.94
2278.26
564.48
808.32
939.15
716.67
528.48
565.81
879.77
1018.24
1097.75
880.54
399.93
352.96
714.41
811.14
982.26
1243.58
2531.65
2397.22
763.86
1309.65
1456.06
850.71
801.93
566.78
565.36
1212.39
1873.09
1579.87
536.08
1078.07
2604.56
2374.98
1126.97
610.43
1230.69
1283.12
1144.38
1323.55
1938.08
2056.46
1011.05
964.10
918.96
743.19
361.32
1063.06
4256.09
2522.58
2245.39
1434.11
686.23
635.53
441.71
318.15
620.65
994.35
1021.01
1363.27
1649.40
771.07
353.17
377.09
664.33
745.26
682.06
667.21
1173.30
446.62
1111.05
1319.01
1785.57
849.66
483.22
282.79
754.45
1035.57
686.45
305.15
297.19
293.82
397.29
617.96
1571.14
755.05
1512.62
1629.65
1220.30
1342.42
1476.53
806.37
512.99
341.92
818.24
1360.29
1400.21
410.76
561.98
758.30
631.04
304.44
960.41
752.21
400.51
1371.25
2150.22
1643.65
1449.63
636.60
434.80
638.03
1139.11
880.36
759.36
1669.52
1694.19
776.07
713.85
2674.97
3903.40
3255.47
2295.37
1231.66
1474.91
4225.21
4197.57
935.99
1229.11
1625.90
1872.98
2213.54
739.72
311.25
446.84
739.09
1111.78
1296.84
888.88
333.35
1321.41
2275.37
4207.91
3317.96
2813.06
2325.20
1256.59
287.46
392.12
568.97
669.66
455.37
324.40
326.87
1262.42
1191.77
929.47
472.62
809.90
1214.44
1468.61
1529.67
958.70
449.23
319.21
360.06
385.10
415.79
406.80
338.70
568.21
622.05
684.74
771.35
1490.78
1019.24
335.03
419.10
932.58
432.93
807.34
956.32
764.23
753.89
1382.97
1707.49
1083.10
872.64
1095.14
466.65
1110.31
543.40
332.81
995.38
594.19
329.67
360.23
755.37
1699.86
1954.98
1933.89
959.06
1363.27
388.60
604.25
731.19
667.17
893.39
1389.46
2946.33
3402.97
3216.91
2868.21
2558.48
1206.43
1861.59
3125.07
2617.50
1529.93
446.68
976.48
677.13
551.12
641.54
484.80
1567.74
287.81
351.16
321.42
279.76
1688.42
2821.15
2165.86
438.06
1857.11
2378.19
1772.19
1507.89
998.84
1751.17
1841.36
703.90
375.90
350.71
424.00
1493.65
1797.89
1486.88
2847.60
423.64
290.74
1131.06
1574.68
1906.89
1859.45
1123.19
388.71
300.83
654.70
1423.40
1752.88
1177.32
728.92
320.65
625.88
302.27
564.98
659.36
1033.80
848.04
315.51
359.22
579.01
473.57
394.54
434.45
422.95
1050.38
2264.57
2392.03
2525.79
1680.99
815.83
290.65
656.51
1291.66
936.86
300.16
323.60
1465.73
3129.87
3591.52
2805.19
999.09
782.54
3251.81
1691.23
527.09
427.36
307.81
321.55
419.44
1054.34
1323.85
616.96
267.72
401.74
1876.25
866.24
749.12
296.06
283.78
294.85
726.09
1451.19
669.12
528.82
846.53
532.22
185.29
565.84
490.35
497.42
564.44
835.00
896.98
876.18
532.17
492.27
728.46
823.12
434.19
1832.80
2528.89
3029.97
2658.41
1706.02
369.08
1253.99
1355.10
1385.61
780.45
425.37
901.88
1152.60
1122.85
1373.91
556.69
1020.30
634.45
451.65
293.31
314.92
690.53
319.83
724.56
1220.44
1628.82
1993.85
1857.14
644.74
556.43
783.87
784.44
1074.79
1463.22
1208.49
685.42
543.68
316.00
396.80
549.08
1036.33
1372.15
848.11
599.18
835.49
1742.13
1828.63
2340.04
643.13
261.39
286.61
515.34
944.77
382.23
277.11
379.88
566.55
878.21
1578.92
1397.51
892.28
482.28
406.92
765.29
575.27
272.37
480.02
1067.66
1157.11
982.17
594.13
1109.90
1710.41
1463.23
522.04
1301.16
1470.67
1254.52
652.94
442.71
507.70
999.86
1802.73
2556.55
1629.25
429.14
1949.07
3497.89
3916.30
3040.53
1539.55
384.10
890.92
1307.35
965.41
635.20
1049.64
1957.36
1794.13
1157.09
852.65
669.13
419.09
261.27
408.64
579.38
801.39
1203.19
793.71
260.63
340.63
272.80
311.21
322.05
581.36
854.36
804.38
300.00
455.52
1646.77
355.49
317.15
646.56
669.43
272.06
1010.32
1040.68
392.57
1461.90
1791.49
1854.45
2842.08
598.87
670.80
784.03
1451.50
3624.40
4160.30
1983.69
1107.20
3639.73
3710.58
1562.05
433.11
295.31
284.35
495.00
670.23
655.74
346.27
492.26
297.78
664.46
648.03
286.67
958.73
523.55
587.70
1455.20
1840.48
1147.58
388.64
698.44
807.86
916.05
948.88
1111.79
966.89
362.21
356.67
578.58
666.00
699.75
827.86
890.68
479.21
411.39
254.71
453.03
1334.37
827.08
1887.69
2911.96
2847.56
2809.61
2380.31
804.14
1923.20
4147.56
4231.77
2350.50
1346.36
2677.70
2237.26
958.96
660.46
484.54
336.28
728.75
633.92
1059.33
675.32
1925.29
756.41
351.62
334.38
588.63
1157.20
1625.45
1088.21
387.19
891.35
1558.07
1331.71
1999.17
395.89
516.95
1353.67
2372.14
2117.74
1465.54
1208.43
1155.87
1379.58
1419.93
931.19
1616.56
2071.73
814.19
1464.00
3606.58
4259.50
2889.16
1935.81
1370.98
594.33
322.26
360.12
278.41
365.48
1027.80
1922.16
2316.24
1768.75
1948.82
2410.30
1848.08
1008.75
1114.82
701.09
1529.54
832.22
566.90
1225.02
1296.57
393.93
573.25
1815.86
2069.05
3050.21
654.32
1108.82
1152.59
749.38
743.19
1040.67
1720.96
1610.27
922.86
330.89
1009.16
2153.29
1885.71
1366.94
347.68
301.70
501.14
640.61
642.58
1755.04
1567.33
607.62
661.57
868.58
950.72
774.60
476.82
680.46
1005.39
673.56
538.86
873.81
1736.66
1686.39
803.53
1091.38
336.94
524.46
658.49
516.39
527.78
689.13
763.64
775.88
699.69
617.15
321.90
502.60
860.96
519.24
485.27
432.13
258.60
575.60
349.31
629.32
554.73
344.14
656.81
695.93
3115.76
872.02
749.85
327.81
1058.40
1240.78
1191.43
1351.19
1224.53
355.75
878.33
797.51
1619.65
2032.09
1521.65
755.46
572.84
568.29
711.12
711.14
383.22
330.85
1214.00
1160.52
1104.57
2399.15
3932.73
3720.61
2016.06
481.54
962.29
1994.92
2343.52
1676.26
711.00
1536.06
322.40
243.65
361.87
496.06
886.66
611.63
905.36
610.51
316.98
447.86
323.22
861.28
1645.61
1556.87
1674.22
1973.70
2088.40
1822.08
1487.76
2316.27
2785.68
1727.58
983.17
415.46
2211.69
2592.84
2223.29
1903.63
645.89
488.68
454.17
241.08
1186.62
2261.28
2291.46
658.47
384.56
783.10
900.42
382.16
416.31
330.20
721.52
386.44
432.20
752.42
3184.23
372.02
267.94
912.90
1416.64
901.20
757.59
612.54
1131.50
1775.31
1531.74
1467.34
2771.54
844.08
366.16
753.30
571.63
787.19
898.88
281.96
714.78
889.01
1126.50
1805.83
3208.51
462.73
1058.60
1961.78
2166.56
2445.75
1629.56
398.01
1700.87
1761.01
428.79
291.65
380.37
309.43
319.47
330.59
766.71
1143.42
814.10
421.56
1348.57
956.01
530.84
813.19
665.68
778.47
367.10
1189.00
813.52
505.32
638.41
337.67
364.35
1073.77
2310.50
2554.65
3040.95
3117.18
2260.95
586.34
899.38
987.94
275.83
781.73
707.15
243.96
797.55
1149.08
2859.38
1588.22
1469.73
655.38
592.10
954.36
578.53
329.55
744.02
1084.16
793.90
323.62
1214.14
1383.44
2326.65
2766.78
2406.65
945.84
608.47
2985.89
3526.20
2949.21
1413.04
2498.15
1458.72
1032.95
1165.71
1780.25
1641.07
1235.09
1048.14
972.96
791.19
278.08
3685.56
647.27
296.34
525.39
578.80
954.97
1379.27
1547.17
1832.02
2121.19
1683.74
781.19
1640.50
548.67
758.77
798.28
630.79
289.00
643.06
1128.91
1353.74
473.88
298.53
255.55
1795.36
873.75
472.80
299.33
319.96
250.01
587.87
531.91
353.51
419.98
1025.65
320.09
866.59
1323.68
1515.18
1236.18
827.27
503.34
339.94
517.38
308.11
457.21
616.13
969.05
1121.76
1163.80
401.73
1346.72
1032.80
700.97
2077.57
3315.56
3800.13
3556.28
2148.48
554.14
1791.05
810.97
551.30
1290.21
1232.86
367.09
560.40
663.31
469.98
385.35
448.40
305.75
1624.38
321.51
364.88
572.59
372.68
606.63
1404.54
966.06
913.56
2417.54
2603.67
1703.69
1879.87
3529.44
3597.41
2516.06
1355.47
1176.75
577.92
370.88
360.16
536.09
694.56
1429.68
607.53
594.72
537.02
915.47
1362.47
1080.51
637.69
698.99
807.60
617.77
406.17
444.27
1063.42
643.98
368.65
376.70
1065.49
1262.78
983.97
1117.45
1330.79
954.48
900.25
1430.30
762.92
528.80
593.59
334.51
948.40
1981.41
1705.26
1269.47
393.34
520.57
745.62
1346.75
444.57
479.86
399.84
325.45
653.66
583.88
549.46
391.99
807.11
1248.30
1443.14
692.06
561.68
338.85
382.10
317.88
374.82
306.39
441.77
260.79
377.34
1150.05
2334.79
1901.64
1500.01
416.68
426.21
544.50
574.36
710.26
328.96
365.68
605.55
522.25
283.80
213.88
3221.53
373.48
323.35
299.03
487.94
1053.45
1413.72
1303.98
747.39
352.69
459.32
1093.06
343.58
1368.46
2344.82
1845.01
772.58
574.40
1612.01
2172.41
1669.02
770.51
583.66
1449.30
1842.59
1629.57
1734.86
2027.25
1459.70
862.07
475.27
1159.28
1072.95
563.78
461.35
1657.35
412.85
1001.18
1813.27
1302.51
449.78
1007.79
582.44
485.95
318.99
897.26
1307.59
1827.80
558.82
370.95
879.49
421.49
531.83
845.01
781.15
530.52
604.48
760.26
720.99
939.72
1944.51
1690.24
774.01
721.80
1010.84
493.90
1477.84
1885.21
1223.58
626.64
431.79
1704.34
433.34
1252.70
2671.97
3571.14
2903.29
1441.71
523.79
1321.92
1042.00
874.41
1206.45
935.31
534.52
329.86
567.71
1007.80
1304.42
795.03
494.79
635.77
464.22
482.98
418.91
911.56
319.94
340.66
415.44
534.56
615.25
637.48
562.64
424.87
475.64
653.39
775.60
565.54
592.46
508.39
457.34
273.45
338.98
529.02
863.43
873.18
661.78
707.93
1322.11
1190.05
1398.30
334.24
671.47
763.63
519.83
590.67
608.65
457.78
365.89
522.19
641.52
700.53
901.55
1428.78
1792.88
1604.79
1140.90
644.49
416.15
1840.14
1646.49
532.57
1137.76
1002.99
2129.91
449.43
586.37
1405.42
2237.95
2203.69
984.16
1143.32
2533.37
2335.25
1989.62
1487.15
725.61
310.42
723.78
999.57
1420.53
1190.51
853.10
877.94
791.90
330.14
952.56
2303.14
431.72
500.03
478.80
302.44
384.18
836.51
1780.75
1741.00
1642.44
1713.14
1697.37
1604.19
508.97
1112.93
1427.99
654.19
653.26
852.91
609.85
715.96
1005.00
292.30
459.03
913.10
759.59
878.33
706.85
400.30
471.45
809.01
727.07
413.13
519.22
811.36
1066.55
1190.93
876.17
458.79
269.95
365.05
311.33
597.24
648.11
294.02
367.61
340.00
387.47
960.32
2215.37
2083.57
2100.77
1457.43
564.54
388.04
333.23
314.06
500.76
868.92
639.91
352.63
2294.37
1883.20
1629.91
429.00
856.03
2281.19
2901.88
2296.01
1009.64
1116.03
2509.94
2290.57
1623.82
1198.93
1285.99
1228.23
324.93
398.80
528.42
662.67
1269.05
1228.37
1717.32
2476.13
1833.20
875.54
635.19
962.25
1566.05
1646.99
1128.76
1011.10
386.64
1212.08
4219.35
1607.62
807.72
289.80
752.23
1544.19
1019.22
951.74
2903.63
2891.84
1459.40
356.03
884.01
550.40
586.73
578.32
785.48
858.85
555.64
415.91
963.83
1415.33
1102.92
539.93
2192.75
948.00
832.59
492.54
290.66
367.48
340.46
305.77
326.40
371.74
531.09
440.36
262.92
501.02
523.55
435.62
296.98
414.78
683.94
733.02
951.21
860.27
657.44
480.12
327.21
391.69
626.84
398.70
603.34
552.38
546.11
381.12
402.80
386.20
402.08
853.98
779.25
851.63
2956.50
932.59
1079.87
1142.50
795.78
418.83
322.87
316.32
300.72
504.27
628.42
329.15
398.42
351.78
1066.68
397.89
789.18
1194.53
1291.48
484.76
688.22
611.21
490.09
1035.73
839.85
389.26
422.66
321.09
676.59
762.32
1617.81
2144.23
1239.08
820.05
1045.13
591.95
1189.35
716.19
952.46
1004.68
320.15
322.59
330.52
399.23
458.19
458.54
349.00
276.47
357.68
1009.15
356.47
413.94
704.62
850.20
609.59
459.68
732.63
1021.72
1335.08
781.62
665.69
2062.06
1949.12
1348.41
834.48
442.84
1737.32
3101.30
2875.61
1446.93
443.17
287.84
982.74
2348.96
2689.48
2751.68
1769.84
592.54
428.73
758.89
603.61
463.23
859.13
1510.97
910.21
463.93
382.54
329.33
345.36
334.58
316.97
403.81
447.49
1217.88
1408.93
1320.40
401.59
379.16
286.59
426.65
603.09
843.88
1062.85
1039.98
1270.95
847.40
643.65
514.91
478.47
585.37
523.15
793.51
1083.77
1048.78
778.03
566.93
326.96
329.35
507.37
466.69
451.21
2722.16
1152.64
855.47
766.22
670.91
562.67
390.04
438.21
197.92
620.21
1377.08
1897.50
1679.05
847.44
346.64
535.25
918.28
1405.63
1620.07
1493.46
1048.22
343.02
704.99
748.40
1989.81
384.85
283.02
482.72
462.06
967.07
2592.88
2217.87
687.71
518.72
586.98
455.38
3093.18
523.97
760.69
1276.45
1112.82
1103.96
1101.49
1377.91
1303.00
1252.36
850.59
813.83
598.30
341.86
463.53
495.81
750.89
854.95
459.80
391.37
293.62
392.18
485.81
487.36
2965.15
593.01
570.48
417.80
558.00
634.53
373.95
543.03
349.25
540.63
302.71
681.56
1129.65
1566.75
