797.26
650.32
543.28
453.71
366.28
395.54
412.54
413.08
396.42
337.09
310.20
315.00
528.88
1773.16
570.84
542.80
382.57
372.34
336.47
395.01
375.95
514.04
499.14
430.72
527.11
535.71
803.65
668.30
613.61
549.88
550.75
589.59
880.23
953.46
667.24
307.54
448.11
530.38
309.00
453.47
347.20
366.99
646.13
743.05
1108.19
1722.69
2466.86
2809.78
1934.74
467.98
1242.41
1607.59
1072.85
1018.87
1650.55
1966.13
650.41
540.86
912.31
849.18
704.05
571.48
1562.04
356.81
256.36
317.68
475.39
596.00
454.33
555.93
447.09
408.18
351.06
336.43
257.48
714.96
840.65
857.69
895.05
977.20
833.34
507.58
363.37
1209.57
1474.53
1057.01
380.28
1431.06
1016.03
1271.55
1438.68
897.76
346.22
629.07
884.51
543.97
400.12
710.22
1079.80
1862.83
780.41
859.75
608.16
920.87
1147.85
849.92
487.27
312.68
242.69
351.32
365.25
3257.32
456.07
354.63
272.33
662.74
975.10
238.26
523.13
397.75
312.81
310.66
621.65
679.05
1290.48
390.26
325.65
432.74
914.67
1385.86
1704.44
1002.61
403.59
599.70
1265.20
1286.04
1485.99
554.61
331.22
248.93
378.08
385.92
464.13
468.47
427.86
441.50
529.55
759.80
1832.32
1062.86
1082.45
709.98
766.84
766.58
393.81
354.07
294.61
585.51
742.22
572.05
1278.25
344.20
347.62
516.45
793.92
872.90
814.14
627.57
535.20
505.71
570.98
558.87
508.30
981.45
709.74
310.61
527.89
948.68
703.24
459.44
613.86
514.91
371.07
395.58
209.51
405.46
465.09
463.50
565.33
525.59
446.50
495.68
540.11
625.69
821.12
861.86
592.79
319.47
594.13
425.26
451.71
1209.17
1779.17
1178.00
591.98
348.55
368.51
563.95
670.00
494.60
441.70
979.89
1166.88
1181.91
453.16
647.99
830.17
708.60
349.99
379.25
531.61
527.95
415.43
1710.98
510.63
989.76
737.87
326.89
574.11
696.11
589.01
504.52
399.64
532.84
754.59
1015.20
1160.16
863.41
422.46
460.50
970.44
1227.66
1283.32
1380.59
1190.31
715.26
526.74
1287.02
1202.30
749.71
291.32
1274.22
1904.39
1785.32
1168.64
587.86
255.88
288.61
292.87
772.82
283.72
339.88
361.24
322.36
361.89
543.03
543.73
526.91
552.24
578.07
494.80
578.87
641.58
441.26
637.83
676.67
606.91
738.62
1037.10
1348.28
1800.45
1334.68
472.23
360.44
641.68
774.41
1283.53
1019.03
339.69
346.52
490.60
534.02
640.13
663.98
653.40
748.38
1791.49
650.08
647.62
495.57
317.94
370.98
334.55
318.09
390.91
366.35
397.91
364.65
443.72
1080.68
1047.46
571.73
386.15
887.68
1180.20
404.65
438.03
316.63
418.87
511.91
462.51
779.10
413.63
339.03
328.01
437.20
643.10
715.74
417.50
277.39
321.44
280.71
401.20
478.28
705.89
665.99
719.54
668.56
297.19
590.46
318.39
803.51
1189.88
1476.13
1445.89
820.30
1385.77
319.65
654.24
613.69
659.44
356.07
672.27
822.78
1037.41
1206.32
1913.60
2627.58
3119.03
2401.08
879.72
966.84
1966.34
1901.01
1477.13
1131.25
775.10
513.14
691.30
633.93
831.83
428.31
236.99
459.86
419.92
420.87
447.53
530.23
739.18
658.89
567.04
494.75
3081.35
645.84
720.59
824.26
877.18
711.93
316.82
302.89
637.72
427.92
307.91
393.56
415.96
944.87
571.31
385.74
352.67
292.69
492.51
529.07
330.23
306.33
373.23
568.03
922.81
1032.12
999.81
710.50
649.30
867.89
1551.76
2317.15
2680.95
2004.94
626.02
792.94
1713.39
1879.23
1459.80
1192.02
1178.84
758.71
323.49
324.07
360.80
334.16
389.50
509.06
445.53
3031.32
792.54
1331.46
1474.82
1374.29
1049.63
1041.60
966.98
368.03
880.71
1985.21
2568.57
1513.13
484.31
937.49
1061.01
921.31
730.21
617.60
664.08
691.80
654.30
537.44
369.91
628.17
254.57
465.18
797.00
808.06
284.66
489.25
697.66
496.80
434.97
497.98
380.65
685.12
825.27
358.19
329.88
714.35
1062.39
873.01
638.86
490.57
434.39
445.25
396.12
471.60
3075.02
473.27
552.47
331.20
422.73
441.02
295.57
592.15
827.58
931.35
766.62
598.20
708.35
910.13
445.78
289.65
401.04
337.04
501.65
642.73
614.64
358.06
347.12
323.77
425.47
295.06
477.90
294.30
378.25
300.24
275.11
285.14
391.14
614.40
697.19
826.11
839.89
766.17
453.33
516.95
436.87
320.41
366.40
422.68
566.10
818.14
806.85
621.70
342.26
344.43
309.31
2953.27
435.55
365.25
382.30
466.90
547.82
602.47
771.65
842.79
837.56
732.63
520.87
448.11
920.98
315.65
314.14
227.10
285.94
283.58
418.17
449.46
364.41
300.27
402.12
506.09
493.55
737.19
513.63
501.84
349.80
428.44
480.46
487.97
502.56
430.46
648.00
970.43
1374.63
959.02
440.92
604.13
1829.29
1430.50
383.19
391.40
378.03
301.62
377.00
438.34
520.76
549.40
741.35
744.23
589.19
491.13
365.33
238.47
288.12
346.48
302.53
338.43
378.94
408.74
2890.48
762.56
926.06
933.74
673.12
725.59
374.18
378.02
350.67
777.22
743.71
659.85
646.59
1146.61
678.63
551.02
414.85
400.24
1029.74
1715.22
1486.82
348.39
609.05
387.43
262.25
784.24
429.10
565.06
755.86
720.10
529.98
359.05
350.49
515.66
663.80
646.85
495.60
537.97
852.80
803.52
819.95
547.40
372.35
913.86
860.61
521.18
359.03
567.45
536.45
473.10
412.56
524.28
543.36
722.96
867.59
637.69
408.34
312.34
330.88
264.98
743.59
1574.80
2631.64
3061.70
1372.94
548.18
1281.83
1421.80
780.51
421.45
617.92
483.32
291.04
870.17
1074.86
803.17
424.79
606.97
445.31
427.98
411.35
431.58
362.29
320.18
288.49
379.02
521.54
648.90
751.97
527.97
353.74
326.49
292.70
582.13
623.91
534.83
466.98
416.37
438.61
488.70
2903.90
721.92
594.66
565.26
423.74
459.56
565.34
987.48
1758.92
1513.86
665.67
302.12
1016.82
1493.03
789.49
370.48
340.07
463.61
310.67
226.80
504.39
461.95
407.32
610.82
463.31
691.40
371.41
404.07
504.47
282.36
382.12
326.59
343.19
427.61
438.71
426.11
402.31
579.07
871.46
873.30
761.05
601.45
403.12
316.66
399.60
347.99
502.74
670.68
1301.00
1621.85
1604.71
702.98
472.68
675.01
598.39
405.79
441.71
439.61
359.63
486.33
619.31
799.93
809.45
854.73
459.32
358.08
262.54
285.94
322.42
924.02
957.32
575.82
327.11
403.02
425.43
448.84
701.24
683.83
586.45
426.32
390.57
311.09
456.31
599.88
599.41
650.90
749.83
351.08
3792.19
584.88
506.08
654.69
603.14
480.98
493.92
502.48
463.59
407.91
371.94
311.54
367.92
869.81
730.35
916.87
804.09
598.82
342.92
593.67
393.83
315.66
320.97
385.25
441.16
562.95
831.49
703.89
646.13
1096.64
1524.08
1616.89
1125.14
382.45
1335.25
1769.86
1429.07
686.35
316.10
431.64
464.60
609.48
700.24
629.77
529.06
543.46
640.30
747.28
603.49
401.98
740.88
387.76
255.57
414.32
591.39
641.44
697.15
616.88
423.87
470.29
586.18
483.15
340.82
621.63
945.13
1223.41
1174.99
655.37
315.50
771.87
928.38
755.20
327.50
334.76
477.50
1661.43
500.85
485.58
475.10
488.28
525.06
474.16
439.13
427.92
381.16
357.70
338.24
339.41
604.62
497.51
382.82
355.83
462.96
234.70
502.38
662.32
812.97
768.84
727.00
751.90
434.46
470.88
307.19
417.06
407.03
833.12
1314.97
1581.13
1427.81
1065.05
522.56
365.40
579.90
439.24
480.67
359.07
1285.94
1880.62
1839.23
875.41
298.49
528.30
779.91
803.85
607.32
798.53
735.54
763.12
964.51
952.38
794.63
883.19
708.65
439.09
283.88
873.45
1341.31
1554.60
893.71
216.33
467.05
583.28
577.92
551.23
515.26
404.81
531.56
1503.65
2696.26
2565.90
1348.17
350.44
975.44
1718.62
1353.94
668.70
400.76
304.15
360.18
435.20
634.03
634.35
452.39
1299.97
1718.00
892.42
428.56
754.92
696.11
779.90
669.99
710.38
608.44
437.75
956.97
513.30
603.92
529.00
390.10
454.34
438.03
573.90
583.83
531.76
645.07
584.43
501.35
538.44
525.56
331.61
449.94
525.70
846.46
916.55
719.19
338.47
418.40
469.23
663.14
546.66
471.24
849.58
716.07
616.53
568.71
371.24
307.58
467.05
617.83
671.89
680.03
548.95
2699.63
622.53
504.02
373.66
303.75
449.44
538.19
444.82
509.88
392.48
415.86
375.69
499.30
969.97
638.08
670.97
792.38
791.40
577.18
417.90
338.78
887.89
908.46
660.89
326.79
394.31
432.80
352.28
470.84
627.17
764.94
633.44
627.82
845.08
682.03
448.16
396.12
269.54
2851.41
402.02
511.11
577.08
617.41
506.11
456.92
366.40
361.60
220.08
426.09
406.41
495.82
798.54
475.54
637.25
515.45
354.65
266.97
326.48
255.12
415.47
408.46
484.50
701.35
874.99
912.02
587.17
375.18
347.32
584.18
601.34
528.11
341.09
335.29
552.85
815.27
1241.76
1694.37
2173.58
1974.65
1023.34
457.10
326.09
1086.36
1288.20
1547.85
841.02
348.62
291.58
843.27
289.16
519.95
857.75
750.36
370.29
710.47
644.07
443.27
298.56
369.31
388.22
401.68
633.70
500.12
587.61
852.04
888.50
463.59
373.31
660.09
294.42
422.86
406.55
513.54
725.73
773.96
564.87
505.87
597.89
784.50
1231.90
1315.61
726.46
437.71
931.64
830.67
371.53
1031.76
510.80
480.38
485.93
420.15
351.77
655.14
987.01
402.03
434.99
629.14
481.63
439.08
634.97
756.60
787.98
675.97
485.70
305.87
317.50
275.28
471.67
520.09
438.67
356.50
2728.08
437.01
720.29
1190.47
1392.84
1350.59
776.48
355.44
690.96
281.83
252.06
528.15
2741.29
816.94
607.70
406.25
415.48
422.03
596.19
568.70
377.28
597.24
894.71
747.96
352.80
873.59
755.96
986.55
778.76
379.92
855.74
1152.66
530.89
454.86
708.30
719.14
624.78
466.41
519.79
342.16
348.94
320.49
364.82
324.62
627.99
853.55
712.52
671.86
609.32
448.82
2757.04
430.45
356.96
359.69
339.91
276.02
414.91
456.28
507.14
477.12
747.83
1031.27
1217.41
1348.94
413.72
367.74
667.62
598.29
353.84
439.45
659.25
794.01
408.01
296.09
259.62
2581.33
392.03
558.10
738.92
317.93
384.50
548.78
441.87
387.30
453.26
766.45
1146.54
1130.31
1634.75
1450.83
936.36
462.70
354.07
393.65
355.93
379.36
321.93
666.82
895.84
741.93
755.50
433.35
620.30
709.38
746.73
648.09
386.36
405.44
348.42
438.43
706.17
1250.68
1915.78
2575.95
2468.20
1321.03
433.73
1980.83
2452.94
2022.08
1522.19
893.25
333.19
428.55
673.95
615.72
451.42
380.26
344.05
292.37
346.46
462.25
494.88
651.53
791.74
645.71
532.58
637.28
430.61
407.16
421.36
380.10
402.31
335.69
352.69
385.07
382.52
423.63
461.06
2645.68
576.93
844.55
912.80
991.29
886.63
510.72
306.24
473.06
239.60
384.53
552.35
501.90
967.12
477.59
349.67
375.38
467.60
641.02
492.58
506.33
430.42
426.37
401.68
494.99
449.86
665.94
617.18
572.62
551.54
433.27
1089.84
785.18
422.37
581.59
593.30
651.32
815.78
2710.62
817.29
812.83
639.60
788.32
808.52
411.94
890.19
1230.71
1235.72
845.57
589.11
662.54
517.26
580.26
680.21
638.15
453.46
375.72
484.48
449.66
442.08
445.99
460.42
382.20
2626.22
506.91
466.32
509.93
556.14
607.77
642.50
650.39
533.50
500.10
341.54
368.69
1038.42
2506.94
3186.73
2370.38
590.72
1105.37
1920.97
1907.00
1334.04
556.12
352.30
312.99
1751.31
801.60
1153.05
652.92
542.69
392.31
369.22
302.96
422.65
562.07
628.63
339.64
605.00
754.96
471.00
476.27
462.53
313.39
239.86
543.16
595.11
382.02
359.56
417.93
533.27
2618.83
914.70
787.06
688.74
557.80
497.54
680.01
825.18
685.26
470.97
351.64
335.37
854.55
1352.32
430.86
390.10
566.35
809.13
936.75
965.63
1116.48
913.13
491.92
480.02
363.56
2612.52
366.74
305.87
437.23
606.13
352.46
432.03
330.97
383.69
394.48
358.84
428.61
410.55
1032.76
691.90
566.61
431.13
352.79
261.63
408.76
399.85
439.25
499.19
496.38
364.96
393.96
648.62
669.68
531.46
403.51
399.27
294.07
378.13
523.81
663.36
639.33
413.91
385.96
2532.78
499.90
516.02
717.66
1062.85
1258.05
1401.66
1128.18
1173.30
877.41
484.31
654.26
2397.47
2447.14
2007.33
1015.60
327.67
359.48
448.10
490.91
499.45
480.71
568.88
686.00
1194.29
616.20
525.20
444.82
353.67
684.19
714.32
526.75
395.43
499.95
583.47
699.89
472.59
669.87
859.81
768.63
654.82
296.29
512.87
646.60
496.21
390.64
418.77
353.33
398.71
2503.47
718.53
493.24
491.68
370.19
344.56
366.62
544.18
535.22
650.45
1275.71
1920.45
2414.32
2176.83
853.41
457.96
1311.17
1604.76
1731.09
1208.13
736.08
449.75
343.79
418.08
1864.98
866.84
725.25
442.72
418.80
388.34
447.22
639.19
698.08
712.34
609.04
399.13
369.64
610.54
564.36
501.05
443.14
414.75
360.01
345.73
398.26
550.69
532.37
361.64
542.08
353.88
462.98
376.71
537.11
619.75
727.51
834.36
881.73
747.32
507.31
379.21
385.36
345.14
2571.87
518.78
698.54
941.58
1023.58
994.68
810.43
707.60
376.13
617.66
1184.30
969.47
388.35
565.21
331.41
356.28
323.79
311.99
462.28
469.18
488.44
498.49
557.05
568.85
492.57
2488.45
633.61
644.65
978.05
1510.09
1246.14
591.88
497.14
405.77
511.67
787.20
976.13
582.90
1191.15
2357.42
2606.06
1553.92
663.72
304.19
379.02
390.02
354.38
485.60
660.75
708.34
1032.62
955.11
1036.71
663.54
364.55
567.31
764.05
526.77
301.28
619.83
958.02
1075.69
2018.18
837.11
1074.86
1052.37
1171.48
1006.78
560.38
526.61
614.21
425.46
351.36
628.84
814.10
343.07
742.81
1052.18
1194.13
802.25
384.12
412.49
468.91
525.13
576.81
622.89
2395.46
437.26
319.52
419.94
602.98
822.01
1098.65
701.42
374.94
753.47
1121.95
837.46
316.09
665.80
799.43
810.54
689.83
735.17
666.22
538.00
453.07
472.77
434.10
420.32
452.26
2515.16
591.70
414.81
425.12
426.95
561.45
499.90
414.25
371.84
413.16
442.23
343.84
366.97
825.19
414.55
488.85
502.99
462.67
372.17
480.05
504.89
625.64
592.87
678.87
609.07
847.58
1124.03
783.22
433.21
358.61
646.46
569.13
376.67
653.52
720.33
671.22
541.97
412.28
2436.50
570.51
915.38
1292.49
1220.77
517.76
614.16
1113.00
1114.63
918.03
370.86
580.18
1653.64
606.05
367.07
357.52
624.12
1199.55
1737.27
1881.31
1182.43
413.04
730.64
1365.27
1746.57
924.72
412.95
370.39
551.78
735.26
656.82
724.67
971.24
770.91
435.18
329.50
2263.96
599.85
438.27
413.21
286.07
552.22
686.03
779.22
486.41
425.66
396.26
335.70
402.31
883.01
364.47
431.13
382.45
576.75
644.36
638.19
545.29
511.46
550.12
612.70
599.63
584.21
774.33
874.34
1278.43
1849.02
1737.46
765.83
385.81
1243.20
1214.75
807.51
499.93
427.07
725.94
774.88
802.61
900.64
661.81
580.35
593.95
600.49
846.45
807.87
412.59
717.40
3175.44
768.62
326.69
331.56
581.34
650.64
537.29
458.12
663.00
531.11
732.23
859.20
701.15
850.60
295.70
445.74
549.10
396.41
370.18
390.15
353.81
337.61
392.75
414.04
547.56
502.01
738.53
708.63
852.77
1242.47
1285.53
1026.82
436.34
636.02
964.27
626.99
370.90
664.15
1609.16
562.29
444.15
701.34
842.05
882.89
783.73
742.47
690.89
347.94
446.34
340.20
422.18
632.05
538.96
457.81
439.63
319.79
551.82
488.06
535.83
969.40
1033.12
717.14
418.42
449.53
593.11
339.17
320.14
335.83
442.55
442.38
511.59
336.48
351.85
334.16
452.20
548.31
2752.17
2147.31
1109.48
421.87
1234.59
1383.17
664.45
498.12
562.61
390.38
859.88
712.35
1511.55
363.89
727.35
1024.80
924.06
738.83
585.21
481.33
433.96
322.52
377.51
333.07
302.96
510.73
369.63
465.99
533.06
432.17
502.31
464.72
578.80
675.72
561.60
598.79
547.00
2225.49
346.04
413.20
417.87
465.72
459.46
592.48
531.82
445.69
420.62
492.26
428.30
444.47
1074.30
731.30
746.81
629.42
562.82
387.15
431.06
407.91
407.48
522.10
764.28
859.49
1057.12
1143.30
702.42
454.70
533.57
621.06
359.32
392.83
311.88
473.61
708.28
862.10
1010.83
1288.06
438.68
441.21
991.59
953.17
365.66
555.51
1087.66
1260.70
1367.45
1045.34
741.47
535.45
383.77
420.24
581.94
369.57
356.60
328.00
450.25
664.28
480.55
473.26
681.74
2469.66
1134.23
973.55
451.31
329.24
386.37
471.27
701.04
580.01
570.56
430.30
380.51
696.76
1069.73
1048.51
674.78
285.54
539.11
908.47
950.56
558.93
455.35
547.95
331.55
397.57
1532.59
679.12
814.05
841.89
703.45
351.28
400.63
365.29
548.87
772.46
998.52
875.85
704.57
726.68
900.59
1260.03
1127.77
704.46
485.33
1584.65
1917.94
1396.36
753.08
534.04
2262.94
494.91
903.66
1267.27
871.94
369.99
565.82
448.59
417.56
467.93
734.08
927.71
1099.90
1406.03
1247.13
688.72
421.33
243.62
747.93
920.78
338.83
406.75
542.32
649.39
666.68
1089.15
711.54
989.86
1040.05
615.19
387.42
655.18
689.73
486.73
379.04
688.99
795.48
1932.15
563.35
302.57
457.49
345.08
408.72
547.42
624.85
575.51
558.13
457.76
438.16
447.18
616.24
574.28
426.60
491.07
258.83
563.64
717.01
539.15
412.33
570.75
798.57
1123.55
1218.39
1118.00
961.98
316.64
1406.59
2176.31
1696.05
419.63
614.75
797.22
777.70
520.96
1516.57
431.98
555.38
606.97
336.75
540.98
781.67
880.46
632.66
403.13
522.31
626.29
560.57
855.06
556.18
419.90
527.80
504.59
668.14
554.69
546.88
583.81
679.92
643.80
795.03
712.84
740.40
496.26
337.11
287.52
418.90
404.93
396.55
464.57
583.15
599.98
646.84
693.09
2181.88
673.27
644.86
608.17
295.65
937.24
736.50
422.37
493.87
339.19
655.45
1051.08
1230.49
1030.57
335.41
297.51
337.19
465.63
641.57
1089.54
1431.37
1554.46
1431.65
557.37
996.78
1966.43
1726.84
859.91
357.78
567.26
623.40
559.93
388.40
336.95
436.16
472.19
543.59
747.05
388.46
327.73
320.73
569.34
796.85
1007.26
922.66
556.86
368.56
812.34
588.77
323.70
625.72
599.13
955.77
1372.38
1513.46
1134.60
454.05
517.83
573.18
375.90
412.87
456.40
881.98
428.07
460.35
279.53
479.31
705.94
785.03
881.39
719.73
276.84
886.63
1030.13
508.25
679.99
326.07
387.78
770.91
1032.56
957.46
1030.76
1086.44
802.35
692.78
490.18
412.88
2085.96
472.78
420.22
470.44
510.58
420.13
272.72
402.13
362.86
501.39
348.99
288.52
432.33
1087.61
398.27
434.50
389.69
666.59
1041.52
1007.94
480.47
343.64
495.95
797.53
947.40
772.28
651.64
499.15
552.51
635.17
357.54
797.09
1379.10
1243.91
1173.33
588.82
377.19
593.21
867.70
712.33
705.17
774.23
999.86
939.91
1043.81
865.06
588.63
481.85
403.99
400.55
1823.49
446.58
260.07
523.83
863.65
1064.00
895.13
671.59
482.41
414.15
398.77
344.45
334.85
458.26
571.24
560.19
530.52
514.67
368.24
367.72
530.97
384.61
323.85
388.00
409.08
534.21
575.16
624.66
1016.23
1792.73
2119.01
1655.26
503.60
994.11
1472.04
1446.79
1231.33
3226.24
294.83
515.88
719.93
531.98
608.40
510.47
524.94
341.99
504.00
676.32
754.67
714.89
684.97
690.17
696.30
487.84
309.96
319.08
300.50
575.70
741.55
657.89
527.59
446.71
1822.63
417.59
438.19
419.99
532.10
512.15
520.64
720.96
498.19
592.71
686.00
284.61
546.52
1137.13
792.23
803.69
995.78
1154.46
716.14
523.43
259.70
376.89
460.13
565.06
430.62
2925.92
1909.29
1757.06
815.57
396.86
803.01
1000.79
953.77
970.15
901.18
642.97
428.20
314.94
597.20
463.21
542.13
743.46
890.32
575.97
402.77
305.64
492.76
754.47
361.99
457.86
1729.66
546.05
604.94
688.17
525.48
448.77
274.84
447.06
405.36
345.82
358.09
487.34
696.49
1130.34
590.37
489.54
373.81
529.17
511.27
409.68
416.66
453.68
576.58
1114.74
1772.54
2128.17
1329.03
434.78
825.29
547.38
390.61
583.74
445.26
353.74
628.84
634.27
526.09
324.61
326.41
289.74
252.59
268.68
448.29
470.36
457.33
397.93
310.53
389.41
368.35
500.44
2102.74
1266.04
1406.12
1087.39
543.16
515.96
833.24
377.62
385.71
680.87
752.59
874.44
1875.57
415.11
464.70
343.08
464.93
560.31
372.02
440.01
385.09
487.45
687.77
812.42
773.45
1472.69
1119.90
1016.23
764.64
431.65
649.13
582.06
469.86
752.16
648.84
528.71
339.63
1869.82
361.03
410.12
370.43
382.52
588.89
372.93
415.37
288.93
509.69
372.61
600.12
1090.23
1378.85
552.61
577.06
697.56
295.90
549.73
890.78
1072.18
607.31
497.27
803.29
1043.91
1746.76
405.64
722.18
941.88
904.79
952.16
774.56
747.46
751.14
692.24
663.20
515.71
514.77
633.74
578.72
848.29
1213.68
1660.47
1619.39
943.63
378.69
538.56
589.83
494.97
509.99
797.26
456.73
1159.31
2214.85
2436.33
1795.44
878.07
353.61
385.59
722.58
877.07
1375.47
1780.14
1328.46
473.82
635.72
1312.80
1431.55
901.35
247.77
551.00
573.98
574.49
1464.00
482.95
275.04
430.91
612.43
638.10
693.76
653.90
570.05
612.27
871.47
699.18
539.66
852.97
431.17
349.28
564.91
438.06
536.08
409.02
387.64
418.96
620.42
735.92
794.09
785.50
826.16
386.75
305.81
571.44
826.37
1384.07
1575.07
1301.90
750.19
385.82
521.39
975.32
1997.12
1389.41
595.26
284.83
347.48
456.52
477.76
432.31
532.46
563.75
631.48
482.35
1506.62
937.34
1029.95
778.53
303.35
714.17
764.99
863.87
754.57
559.53
333.12
452.41
331.39
648.35
536.36
393.52
785.92
884.12
786.87
698.55
503.67
271.98
471.80
266.97
699.30
1948.24
665.63
438.55
414.12
461.28
537.04
735.08
631.02
609.86
360.65
356.52
412.87
528.08
1031.90
452.08
420.64
462.78
697.18
744.45
596.14
428.34
348.97
269.74
235.33
382.49
361.31
584.06
480.96
582.83
552.06
728.85
855.05
1099.01
1251.18
1073.37
544.41
472.37
334.96
902.18
237.62
440.19
795.46
1075.22
742.93
326.79
431.11
314.53
367.02
434.85
451.69
453.21
595.36
571.39
715.45
853.11
777.88
584.88
384.18
368.40
288.34
381.32
482.18
698.70
1782.53
660.84
250.08
656.31
469.51
505.75
478.43
348.42
553.42
661.08
620.14
364.64
486.12
983.51
722.30
869.57
934.02
659.63
438.45
368.39
476.12
631.08
700.90
1119.67
773.95
649.92
458.24
334.27
283.99
1177.15
1565.45
1455.55
666.47
351.35
437.73
388.15
337.69
285.84
530.45
655.15
764.32
790.07
890.67
1067.58
889.10
905.44
528.08
363.70
811.75
462.28
885.41
1304.70
639.65
424.17
447.46
491.76
534.65
550.67
652.00
688.01
663.89
369.65
463.91
1645.89
366.73
324.06
527.27
859.25
1276.08
1579.57
1109.61
531.63
765.53
2238.51
2535.12
1746.41
1077.03
1768.64
1225.78
704.24
783.89
998.23
695.84
454.90
295.29
374.50
133.48
399.40
285.91
730.95
1407.97
2207.69
2325.30
1551.80
567.70
260.82
586.77
926.44
846.20
931.53
319.26
441.25
267.09
292.22
739.46
1001.06
715.74
315.51
710.27
808.15
722.32
783.63
880.24
709.98
622.78
729.52
939.63
864.90
893.46
623.94
222.11
317.23
680.49
450.92
2436.90
1637.40
828.66
605.86
295.70
517.11
282.87
460.04
308.52
341.90
458.10
320.02
404.55
1079.39
487.52
325.62
384.51
402.14
305.64
360.75
325.61
214.67
284.23
316.39
305.37
1641.73
1220.19
1715.87
1457.49
830.79
515.00
288.00
1308.62
1772.43
1041.94
3231.52
4168.50
4065.47
3630.66
1412.51
754.09
2054.05
2362.45
2274.12
2051.16
1321.57
796.37
730.87
765.28
456.26
279.07
417.31
623.25
692.76
480.08
364.46
453.56
331.09
275.74
344.22
393.07
589.47
524.88
671.30
770.82
704.10
675.66
742.95
681.30
511.54
311.22
334.10
431.18
1372.65
544.12
490.76
537.45
653.35
635.42
579.38
525.57
507.52
604.59
826.47
804.25
964.32
1276.60
422.03
483.46
935.26
432.10
385.99
393.30
323.71
438.86
458.43
337.27
398.87
483.03
604.80
465.76
371.17
258.44
320.69
262.33
603.26
834.97
691.12
603.04
532.93
409.69
1364.53
434.30
540.69
558.53
520.19
401.88
384.06
394.23
454.73
459.61
373.77
408.03
475.65
925.08
368.39
500.99
609.69
761.70
789.88
659.41
518.12
233.59
213.55
415.39
577.42
823.97
1326.72
967.06
400.00
563.79
666.98
709.52
246.87
466.92
528.15
581.79
658.22
747.51
1385.08
569.44
419.16
305.38
234.24
326.20
389.13
570.56
446.17
393.24
482.73
399.47
415.16
1404.90
1451.03
1617.71
1253.43
837.88
531.72
342.78
809.80
920.79
789.70
284.50
320.15
949.91
661.33
871.04
972.79
932.81
742.12
675.96
703.65
613.65
329.70
484.13
878.05
1108.66
567.87
531.65
840.34
596.37
670.31
709.77
609.09
844.42
2041.73
1726.14
788.47
294.66
817.73
285.29
684.34
1438.70
1725.21
1715.36
832.81
362.97
507.64
484.00
630.74
634.85
1684.06
378.89
398.90
522.31
763.71
956.16
928.30
681.26
335.41
283.59
330.30
432.26
538.62
491.97
337.57
430.33
367.52
390.18
503.01
512.13
511.17
483.38
615.13
674.62
748.27
847.54
752.89
361.26
420.27
697.16
679.29
408.74
351.73
264.90
363.24
406.18
538.40
502.96
3172.20
432.60
308.65
244.34
341.16
499.00
454.59
329.88
441.74
971.83
1217.91
1186.56
1028.22
876.57
816.23
883.07
750.70
652.31
361.47
451.89
698.78
371.39
460.58
290.20
865.14
3591.95
1608.73
423.73
1066.13
2055.92
2111.00
1926.57
1401.03
771.79
473.72
403.73
598.97
472.14
361.95
371.30
560.82
605.53
607.76
419.00
753.00
414.21
255.57
770.69
1132.99
865.13
319.39
409.30
532.97
589.48
545.53
536.20
379.76
373.75
404.77
542.77
549.98
466.66
1581.47
547.95
576.77
654.09
506.29
243.24
441.04
312.72
927.17
1375.12
1186.47
562.21
579.01
900.70
352.19
563.14
453.01
378.48
404.65
477.58
397.61
501.76
535.71
572.02
612.57
1697.88
546.77
451.12
427.95
508.93
439.52
334.13
413.08
598.22
581.34
440.34
434.38
483.94
688.28
514.65
438.55
541.37
480.24
504.74
384.82
401.93
473.66
491.59
520.47
473.13
345.39
456.63
456.06
425.74
501.30
750.91
907.15
956.08
817.86
426.90
451.11
405.61
721.82
1411.25
638.44
448.79
316.01
658.28
737.41
369.26
742.01
768.24
822.19
623.44
397.85
326.50
948.25
379.89
706.76
517.05
369.87
635.25
974.58
1116.73
522.72
435.05
603.05
422.98
593.99
725.16
881.14
882.50
807.44
700.17
735.87
712.90
810.25
743.21
444.51
269.33
656.78
1979.91
319.92
312.30
612.28
515.61
344.03
339.02
338.15
416.97
622.72
504.09
366.92
558.80
1771.43
1709.39
579.88
527.41
1268.30
1120.56
302.93
740.18
1015.26
1385.71
1446.09
684.77
377.28
611.77
496.33
563.29
422.03
261.77
252.18
319.23
272.34
436.64
717.42
882.38
1794.29
371.02
438.86
233.90
613.82
1176.40
1193.72
786.48
318.95
1034.15
1063.39
376.97
2249.11
1485.36
1179.27
716.10
511.42
468.22
649.43
553.64
306.11
271.94
333.15
232.70
3263.03
443.05
569.39
408.14
355.68
437.18
370.50
698.01
376.40
327.01
670.64
766.07
777.51
1184.19
530.71
517.88
429.70
246.75
426.38
874.36
691.66
400.80
212.81
685.43
643.94
317.80
556.39
540.33
799.29
717.98
788.42
707.59
588.15
504.05
410.64
568.33
419.80
527.22
2967.66
1153.21
1215.26
845.95
367.92
810.57
809.47
708.71
446.30
446.46
253.64
541.71
646.47
785.94
656.11
605.95
473.20
405.64
407.66
293.71
337.25
438.43
823.49
1385.12
1723.46
2281.36
976.44
801.91
697.60
497.61
310.38
703.46
1027.16
1198.58
974.01
1102.07
918.29
600.30
493.37
597.85
515.20
644.51
409.25
264.32
503.63
569.68
423.53
376.72
403.54
547.80
754.97
589.70
846.14
990.29
942.11
576.45
306.15
386.31
348.75
363.79
325.25
430.27
2992.12
1018.39
964.07
698.64
445.66
394.73
334.66
398.54
348.77
337.29
283.14
304.35
850.16
1701.13
1568.60
1084.03
779.08
488.12
672.11
700.78
347.64
338.09
372.28
310.53
328.74
1184.30
1086.87
1079.28
545.31
385.55
875.52
1288.31
826.77
318.76
700.71
987.56
902.14
1054.35
346.83
344.42
347.63
499.72
609.37
693.51
377.73
388.53
737.50
587.95
303.37
366.68
555.48
446.35
781.42
1156.48
1523.42
1004.31
364.20
736.77
384.40
688.47
777.11
613.33
788.22
392.43
334.88
463.71
711.74
518.33
470.20
572.36
604.53
678.49
536.38
379.11
271.73
532.56
424.79
256.80
453.95
772.11
620.57
468.03
607.72
810.23
460.05
519.18
301.52
467.04
970.76
974.00
802.10
341.13
430.38
365.14
466.96
548.21
490.08
554.67
486.17
570.99
1767.48
828.10
690.69
514.67
1483.00
1653.16
912.28
459.62
415.73
550.95
465.97
461.48
3096.11
639.59
645.15
679.36
847.90
882.37
643.58
552.28
450.07
392.30
370.40
512.92
747.16
1418.85
529.20
681.75
454.48
417.23
788.05
925.15
918.11
907.77
829.39
734.08
651.37
603.56
533.81
375.30
505.35
572.96
340.80
333.81
531.18
586.94
584.15
522.24
382.33
325.41
3171.05
870.62
1121.81
595.20
423.83
1012.19
819.63
314.32
375.18
607.33
710.87
487.37
451.23
504.09
336.83
501.31
765.10
809.28
846.29
879.46
1058.68
673.75
444.67
1191.44
812.10
904.81
532.88
558.63
518.04
541.89
683.66
589.97
329.20
306.37
278.72
438.11
532.34
801.87
1239.92
612.42
357.12
1133.27
862.72
471.79
277.23
488.15
475.18
466.54
541.52
435.63
1651.78
409.33
397.05
463.51
689.09
756.45
669.46
678.20
589.90
309.97
305.47
236.34
374.94
784.88
298.68
452.09
608.99
635.83
588.14
648.49
745.01
775.21
749.48
436.54
355.43
395.11
397.95
473.99
463.81
432.81
606.41
657.50
477.21
458.72
692.91
607.34
652.44
912.00
3085.35
2454.58
2632.16
1532.12
458.08
2095.95
2756.79
2825.09
1786.47
944.14
264.24
434.80
538.83
349.23
386.70
336.99
348.14
458.27
391.46
343.14
463.71
451.52
516.90
549.53
3009.99
649.38
738.47
864.41
915.07
931.55
1028.88
1000.84
1101.06
1157.25
399.28
708.05
4046.70
930.42
457.84
427.11
467.17
219.79
290.50
430.44
601.48
597.66
495.90
515.20
547.65
1000.29
380.61
359.24
372.56
366.37
545.63
713.61
596.44
496.84
403.84
512.05
520.09
537.74
720.21
764.99
853.83
1088.62
1488.59
1819.69
1319.81
407.26
1115.60
2182.43
2135.32
1411.92
384.84
689.71
620.42
840.82
763.26
897.66
899.96
494.61
336.65
346.31
381.33
325.26
480.48
347.01
357.52
305.59
382.39
619.54
896.17
961.08
735.32
367.44
352.72
378.23
269.77
464.44
304.23
344.41
357.78
526.75
688.42
582.99
696.66
605.38
427.78
547.34
821.32
2978.06
1141.25
872.27
480.60
572.10
836.44
781.19
413.32
414.24
982.77
1328.20
1230.67
309.73
603.31
710.77
706.28
318.74
1457.38
1392.25
396.48
834.01
668.25
437.24
379.68
488.63
926.91
869.05
806.92
694.15
482.86
369.98
544.12
466.29
401.14
1115.33
2069.11
2547.21
2643.09
490.03
938.02
1532.44
1404.52
665.39
216.21
420.29
596.86
537.84
622.45
458.12
1589.37
347.22
344.08
268.31
332.29
473.90
545.63
616.67
541.43
459.26
410.94
448.74
356.09
691.48
359.22
697.91
936.62
880.28
785.78
876.36
799.40
623.71
473.16
418.34
347.36
386.81
449.83
376.64
372.52
747.25
985.91
733.35
331.66
343.68
365.00
385.37
350.61
326.50
2935.13
426.40
444.18
558.16
682.81
546.07
426.27
300.73
373.59
445.45
670.69
583.28
521.57
1029.79
616.87
699.15
769.21
738.86
587.68
469.32
432.91
799.88
586.59
375.24
783.83
1016.53
1030.06
535.52
349.68
417.88
451.53
626.64
762.72
670.19
438.31
356.92
335.61
698.84
1298.95
368.63
675.75
844.26
794.95
529.95
295.99
370.98
497.53
582.21
528.30
396.43
239.79
432.74
263.11
478.09
775.86
1331.76
1404.34
1037.83
401.32
653.03
979.56
933.70
297.16
600.19
609.43
697.32
839.71
678.25
432.53
363.03
454.76
413.57
342.72
426.26
443.77
527.23
771.49
933.86
988.42
755.19
611.47
365.79
1125.77
712.21
315.70
351.03
332.66
458.17
1085.82
688.15
623.61
448.30
413.89
711.44
918.99
481.27
291.25
528.97
768.09
920.48
763.74
477.46
1143.05
1264.74
310.17
607.23
662.39
691.56
615.41
591.47
741.88
876.65
812.36
883.64
290.55
356.43
491.89
521.49
659.98
574.60
579.26
572.84
620.96
448.22
331.99
540.90
502.06
428.71
443.24
409.77
466.04
417.97
396.34
293.31
427.14
627.88
612.79
621.76
558.86
700.36
696.04
669.64
724.28
834.53
763.01
565.20
362.47
748.31
437.92
371.62
555.03
2682.22
603.84
446.62
434.63
539.86
431.85
492.73
441.29
452.72
817.53
426.25
357.85
595.03
902.22
465.80
560.85
558.54
542.51
531.57
410.53
320.88
630.88
477.82
407.14
373.39
510.50
514.58
743.79
1172.02
870.12
628.94
535.30
446.51
450.85
461.77
380.05
385.36
341.09
3005.53
270.27
400.67
492.26
529.41
528.93
525.19
393.94
269.92
414.11
447.88
322.90
329.49
1002.82
617.76
455.71
668.82
685.56
479.36
388.00
407.93
501.12
514.61
572.17
403.53
296.54
620.20
902.75
950.22
1027.66
279.63
1307.72
558.65
688.57
949.35
709.10
519.17
406.55
1743.67
504.04
490.53
380.50
316.97
318.68
245.20
437.82
518.12
580.24
377.44
341.00
235.67
558.20
601.83
740.43
632.47
436.76
310.77
399.57
328.50
315.12
376.38
776.91
987.34
1071.68
912.00
594.41
368.77
422.30
276.46
452.17
362.69
348.92
353.32
288.60
461.25
324.03
839.54
492.85
651.75
692.11
744.32
708.61
732.39
592.04
571.60
695.92
1022.52
974.70
583.47
474.42
1340.58
1470.16
1144.62
988.23
507.13
413.19
756.94
929.69
540.22
433.96
3718.16
414.96
503.83
520.12
764.83
1024.26
933.67
439.10
609.51
331.82
473.73
789.02
711.65
806.04
644.49
648.84
652.72
529.36
409.67
416.31
432.50
540.35
612.32
650.92
517.91
407.57
450.04
362.86
354.40
691.73
361.24
592.54
786.64
671.75
625.12
936.79
1228.63
1111.67
1763.95
928.89
1391.01
1565.03
738.90
647.90
1038.23
1111.69
472.50
1265.53
1635.37
577.75
499.38
789.45
513.34
438.09
832.43
328.55
729.73
1789.11
3025.88
4068.74
3695.38
2098.73
536.07
2144.23
2717.10
2804.09
2008.34
879.46
443.32
839.20
562.56
342.20
302.40
1779.97
326.00
313.88
368.97
277.96
343.51
433.11
544.70
770.01
874.11
704.65
551.11
353.66
528.57
604.03
1160.95
1291.94
802.89
656.48
391.49
346.32
722.13
1353.10
2152.14
1363.05
682.49
797.36
960.16
944.40
811.00
673.34
578.16
514.93
859.72
1168.21
771.43
487.35
1994.94
890.61
322.02
476.11
367.58
311.28
345.41
670.76
573.35
509.23
505.24
411.79
458.00
1032.75
768.22
274.59
592.95
1093.98
1447.04
1168.46
600.89
373.02
252.59
275.88
306.92
817.83
430.94
389.50
500.26
403.68
518.49
478.29
414.42
464.39
434.76
524.85
457.11
565.46
920.16
995.09
1170.87
821.78
369.07
439.22
587.32
332.78
352.58
295.25
268.86
458.08
2686.00
479.37
433.83
485.64
610.73
579.06
536.81
608.18
502.49
554.09
468.19
431.15
531.15
1050.03
662.05
429.14
358.25
477.74
348.85
274.04
383.37
455.83
678.03
670.72
681.67
650.45
755.56
562.85
560.61
531.35
362.68
449.41
554.48
368.55
341.33
551.01
599.36
880.64
2870.46
2213.09
2591.59
2479.22
1438.67
399.62
987.95
1444.08
1363.84
941.64
1124.00
805.57
572.72
491.17
389.96
787.40
1538.65
1400.22
596.55
442.22
997.23
1212.49
453.00
1525.47
2382.44
2259.28
605.41
1351.13
1832.55
1671.00
1120.05
503.63
309.22
386.29
351.43
1686.26
426.67
445.40
416.44
363.69
302.31
378.56
406.73
415.40
384.85
383.46
630.65
751.68
1059.36
848.64
899.80
499.90
351.49
645.75
1330.18
1025.54
319.54
464.08
627.10
636.73
1110.41
735.36
927.18
832.28
598.77
399.51
494.08
364.10
407.01
376.10
537.16
368.07
339.19
458.93
556.22
546.72
545.29
565.24
565.25
535.75
427.18
557.26
421.38
384.10
359.47
2665.41
1070.49
909.26
719.09
700.32
461.76
321.74
331.11
370.25
380.86
299.36
375.04
428.04
595.56
313.02
421.75
549.54
536.56
457.01
572.88
658.88
961.96
1267.91
1604.20
1830.86
2731.04
2010.22
1060.92
828.33
2475.08
3152.30
1996.58
802.12
494.52
366.30
402.03
452.21
576.57
489.17
340.00
408.10
330.01
337.55
380.00
461.17
502.84
464.34
491.66
495.44
2572.13
530.05
441.12
379.25
708.67
848.76
903.99
784.41
480.77
381.30
397.76
390.66
377.54
896.29
449.52
481.32
409.20
393.94
416.90
461.07
435.99
367.05
447.65
466.00
521.71
613.67
653.23
358.41
371.46
535.46
666.59
656.28
629.52
675.51
630.99
458.78
380.84
353.10
353.85
468.93
335.22
366.36
411.86
409.80
421.12
322.27
331.37
417.46
399.34
523.41
545.84
2744.53
654.75
469.31
405.95
416.86
366.54
332.82
420.24
533.92
548.28
575.37
397.23
361.60
797.45
463.34
707.86
1090.74
1121.04
437.26
307.45
446.67
706.60
763.90
502.29
334.66
2732.64
321.32
283.37
560.03
791.70
891.82
544.09
526.31
1352.61
675.17
301.51
478.07
466.12
562.83
386.96
399.43
495.04
415.02
373.69
453.21
505.14
679.42
587.13
588.59
678.50
817.15
779.74
610.23
376.93
322.30
619.74
350.09
307.10
333.73
383.20
894.48
572.15
377.34
2656.22
462.20
697.21
907.59
953.71
833.11
514.05
439.34
1063.23
1139.94
589.69
327.98
320.62
495.84
511.27
561.20
576.37
615.85
535.26
457.59
460.54
425.08
455.77
420.42
538.06
2635.65
879.57
595.99
493.94
420.38
333.60
484.45
562.31
372.02
469.33
564.63
421.17
828.04
1567.50
661.00
1135.74
1229.57
443.03
1207.51
1903.61
1763.42
971.63
475.84
346.34
465.76
685.83
725.95
381.71
309.31
363.07
300.53
377.03
500.56
529.10
560.53
711.36
693.83
2444.72
745.16
638.16
529.39
389.27
297.81
304.86
425.50
454.31
329.86
414.87
483.75
304.42
817.44
431.48
524.95
542.33
472.76
480.24
475.52
471.36
457.81
397.23
455.73
474.86
479.62
754.19
566.13
520.15
392.77
413.03
461.62
484.54
580.47
602.24
855.32
1165.60
1233.33
1089.69
412.88
375.97
610.86
753.21
365.25
307.59
413.91
354.40
316.84
452.92
580.80
615.49
691.61
477.00
481.63
504.96
454.63
343.15
313.81
375.38
446.59
566.42
393.38
267.27
500.18
711.80
691.64
782.89
852.01
587.06
578.02
380.35
368.62
358.07
424.25
536.60
736.27
2443.43
978.33
872.01
577.13
343.85
564.17
1188.28
940.77
303.17
405.00
475.70
655.18
1238.30
2029.94
2117.98
1352.92
395.18
1223.00
1861.88
1303.19
474.96
319.90
344.04
371.68
1738.65
652.18
1095.36
1609.70
1683.75
1372.91
1202.90
859.72
395.48
1422.10
1858.83
1325.50
451.81
539.08
786.07
731.40
513.08
350.08
267.31
655.56
742.57
437.14
346.26
355.80
812.07
328.38
547.24
796.13
837.15
1195.55
1112.71
416.79
727.11
629.59
355.87
409.18
3087.93
630.77
285.70
507.51
527.54
478.94
430.19
633.57
750.03
762.36
592.75
460.44
404.28
840.03
409.23
517.00
291.38
1008.05
1006.16
340.56
319.74
320.14
502.00
1472.34
1746.06
1243.24
800.64
633.34
496.46
426.29
335.95
299.39
350.57
287.05
333.71
400.49
401.17
406.04
821.60
405.56
434.29
438.29
463.59
353.11
424.88
471.58
421.13
447.17
437.21
500.25
454.96
666.30
505.57
525.38
356.55
395.68
348.63
491.01
626.23
743.48
563.42
419.57
411.49
319.66
553.76
647.11
611.44
619.55
587.11
494.69
502.92
486.65
512.35
452.69
464.07
392.15
2490.78
407.38
426.31
479.09
454.23
393.78
451.00
463.35
322.48
384.01
323.08
466.58
459.52
949.33
584.53
581.76
452.62
510.06
675.90
858.82
764.11
604.07
383.00
300.22
348.14
373.40
527.64
352.20
432.17
409.54
428.74
418.11
551.66
500.16
442.57
390.80
471.56
613.32
684.69
767.28
536.90
434.76
343.63
314.17
322.18
314.24
352.34
365.53
498.69
388.93
380.02
2371.28
604.56
569.50
453.63
340.63
535.98
458.84
491.99
479.52
577.25
526.15
588.92
419.58
821.28
420.76
416.68
439.21
369.47
489.08
383.99
435.96
421.79
370.63
489.68
592.76
604.40
945.24
817.48
693.84
572.07
476.36
349.11
379.51
545.99
603.98
857.04
1370.82
1412.14
1106.14
624.81
345.07
645.75
1031.96
781.63
570.03
1219.07
1578.97
1438.33
471.46
1487.83
2394.36
1807.62
1384.28
630.85
364.82
314.82
484.30
578.67
769.41
843.72
829.42
621.70
927.29
467.86
506.36
559.18
633.23
470.28
319.93
311.51
339.53
432.82
448.46
524.36
440.98
667.02
856.20
1337.83
1535.71
1682.52
1629.39
1133.74
585.82
413.37
505.03
873.96
963.56
1190.99
827.48
333.74
466.41
329.72
407.34
392.41
379.02
407.01
490.28
407.68
792.06
2125.19
1367.14
1043.30
730.24
454.72
298.63
333.30
324.43
294.10
296.58
388.26
432.78
2376.26
714.76
522.99
845.94
1418.42
1031.52
514.91
316.93
414.44
439.40
386.78
579.82
499.12
511.72
386.76
444.16
484.04
470.08
377.81
483.95
805.72
1027.87
1097.48
791.72
417.65
1760.14
732.84
662.96
367.61
528.14
440.15
272.33
338.87
326.11
598.13
1156.99
1473.34
1435.19
676.11
413.37
470.14
643.15
680.65
628.50
409.61
401.02
535.63
578.54
629.26
733.65
1197.75
691.55
411.98
631.44
1179.28
1896.65
1389.81
450.10
1186.11
1850.83
1241.42
588.65
573.87
923.84
374.18
457.44
589.59
692.31
538.43
394.00
345.52
377.52
458.04
536.89
1984.86
848.41
964.87
1248.68
769.57
407.45
561.52
755.17
859.15
1237.49
403.61
730.40
2370.92
832.32
396.58
522.92
557.94
354.69
491.51
531.15
586.59
414.40
333.16
445.43
392.93
916.55
510.62
479.79
390.63
407.05
526.74
484.11
522.76
501.40
452.43
419.32
493.01
665.67
1665.57
2455.90
2812.13
2441.64
782.72
710.54
1574.35
2005.15
1720.80
1109.21
439.39
1586.26
991.77
1112.32
1263.74
1032.59
445.81
394.87
722.79
823.00
699.80
332.25
417.09
1605.48
435.37
309.04
391.18
450.99
441.18
371.25
474.84
474.95
630.20
663.35
784.20
701.68
869.96
482.60
384.36
349.78
292.50
426.90
547.16
544.61
553.92
587.30
586.70
540.81
621.51
665.02
534.97
407.98
398.60
478.00
606.61
704.13
636.71
543.98
370.07
368.50
259.82
2278.88
401.73
416.71
403.15
380.56
425.44
344.19
454.42
675.71
668.38
560.62
559.63
636.12
1295.24
914.19
965.29
970.82
1019.78
669.43
498.21
442.77
617.82
539.76
370.79
334.71
1905.34
384.50
374.63
545.90
674.08
785.29
846.23
704.75
449.95
519.84
718.95
550.50
374.82
672.09
484.43
544.30
690.63
630.58
617.32
889.66
1407.79
1575.37
1200.33
404.73
1036.34
1979.53
859.83
309.74
411.40
490.94
409.91
420.62
502.57
671.90
933.48
1380.43
1755.62
2231.24
546.14
626.54
1214.15
1039.75
538.11
306.76
412.97
452.50
533.77
470.96
594.79
1676.69
573.36
1049.65
1318.22
1111.40
816.47
382.83
319.34
386.33
411.16
404.78
346.29
1482.92
462.58
485.13
477.77
412.43
373.80
446.96
509.36
318.03
319.69
793.98
1393.16
1676.81
987.48
363.20
573.50
577.00
332.95
363.06
462.53
767.11
581.95
564.50
321.66
402.85
856.63
448.97
565.76
567.37
575.28
344.86
307.19
385.35
573.65
600.67
541.54
432.81
555.97
937.27
710.17
665.93
740.54
328.02
316.36
537.21
1173.03
669.04
287.93
389.53
336.44
2183.03
773.72
691.33
658.59
600.10
600.65
552.32
594.19
336.22
349.77
313.92
466.62
630.91
960.76
404.68
518.27
698.02
719.28
635.75
628.70
686.09
603.82
567.56
461.92
372.90
397.73
806.25
591.34
581.89
465.72
368.43
378.71
601.99
452.57
430.16
412.57
392.64
632.72
712.44
833.47
532.06
279.41
325.69
376.30
566.73
595.15
493.68
445.21
388.13
310.20
391.25
2025.62
529.65
714.30
663.25
632.03
549.33
510.03
494.19
513.15
444.46
404.14
340.12
336.71
776.49
347.31
390.82
455.20
368.85
364.76
459.74
633.07
835.79
817.08
870.26
627.02
481.97
682.37
380.85
595.19
685.67
652.68
515.99
323.82
856.24
562.14
441.68
656.57
773.61
655.69
715.09
635.23
577.64
707.89
987.84
896.66
492.21
352.35
428.98
464.94
458.74
362.64
1902.16
320.24
339.16
767.78
395.93
358.25
431.78
534.90
576.18
644.62
750.48
913.07
803.08
909.75
525.42
710.01
432.05
419.45
763.27
1274.70
1229.23
756.46
431.97
431.30
248.30
2019.85
362.73
311.72
381.29
412.60
508.09
538.34
396.48
310.83
346.23
368.49
895.43
1401.08
1432.39
657.54
361.01
260.19
325.70
440.58
399.50
337.39
291.60
472.34
374.59
331.66
2051.74
421.46
416.69
345.00
583.42
1008.92
836.44
506.94
409.66
279.06
514.82
413.39
275.98
543.98
434.79
566.76
624.77
634.67
726.27
628.62
692.04
775.05
854.85
874.86
737.15
358.02
721.68
453.00
502.92
564.59
555.77
364.07
318.95
515.60
508.56
413.18
467.52
551.36
2023.02
421.19
429.33
432.83
384.94
539.37
624.51
559.95
455.36
416.11
413.56
448.72
469.92
977.45
554.85
530.06
527.71
486.60
460.38
324.94
289.65
382.95
513.61
680.06
701.99
479.64
621.92
464.98
526.35
524.33
411.05
575.88
520.10
415.46
614.28
772.14
793.80
683.43
380.75
322.69
404.54
580.59
717.77
597.94
563.39
570.10
622.20
607.87
486.29
464.95
474.64
1831.40
492.55
397.38
348.63
339.18
330.58
389.93
596.23
661.65
423.62
624.06
1299.73
844.92
550.64
349.78
309.63
341.05
570.07
575.96
575.47
413.32
436.92
348.56
401.86
634.95
636.08
654.91
834.49
1000.70
1250.08
1395.76
875.14
393.15
506.05
689.51
658.09
639.95
709.38
1200.86
728.99
633.69
496.69
354.67
470.72
493.85
548.46
844.14
968.48
887.56
736.39
440.83
398.46
504.78
613.46
754.62
822.19
632.95
580.28
396.63
873.24
1613.54
1854.77
574.48
1414.82
1418.73
1321.92
945.92
862.25
670.78
727.07
787.29
900.91
743.70
689.10
553.38
2124.71
429.09
591.08
584.63
490.60
496.94
648.56
667.44
446.12
451.45
427.30
408.46
463.55
598.15
394.84
430.52
656.18
490.92
381.65
319.06
470.44
572.49
525.93
427.99
581.57
519.77
716.50
683.70
745.37
975.51
793.95
356.14
318.69
351.96
450.89
539.61
557.82
559.02
1742.58
442.56
476.29
516.19
657.51
583.48
570.50
422.42
532.16
528.58
450.56
346.95
416.16
866.51
508.52
496.41
481.92
468.65
429.08
507.07
661.52
747.24
666.11
616.85
542.61
424.86
620.15
329.49
485.84
607.57
601.45
559.62
699.62
686.43
568.98
422.65
435.43
476.20
379.89
674.13
624.82
417.59
378.85
374.49
292.73
558.35
652.73
462.25
372.01
308.06
289.35
1837.65
516.32
827.62
1160.77
1031.79
816.68
581.97
328.82
282.73
380.83
325.58
451.89
761.58
1330.47
1140.83
962.97
612.21
412.98
323.02
332.56
420.13
606.28
634.45
777.69
525.69
511.26
457.91
423.04
567.91
465.07
438.82
521.64
506.63
462.84
372.41
305.64
336.50
341.19
616.34
836.15
1002.46
1096.68
989.85
715.65
493.17
617.83
286.03
429.07
673.21
741.05
1839.27
1157.15
439.81
391.68
367.53
715.66
773.53
734.87
657.27
688.29
647.96
691.80
317.10
787.72
735.98
483.90
287.14
340.81
274.20
342.55
327.12
333.50
249.88
289.10
345.20
1966.88
317.35
371.27
400.09
474.72
479.14
620.14
561.65
544.35
536.90
551.54
538.55
462.42
1010.13
462.46
575.98
496.41
554.69
490.84
514.80
469.27
433.50
448.93
426.11
441.99
394.70
418.45
392.63
371.60
454.96
830.28
868.08
776.38
610.21
532.32
326.42
372.02
392.59
1665.80
428.34
412.86
475.22
462.61
429.68
484.01
532.04
406.59
354.62
370.79
375.27
406.68
881.51
435.97
443.36
448.42
341.48
350.51
344.66
383.32
458.19
498.95
480.94
444.88
455.46
630.48
497.17
711.36
808.93
550.61
512.61
407.22
472.37
481.11
457.37
371.92
444.28
442.40
642.88
841.00
1280.92
972.88
444.91
358.09
414.99
982.19
777.75
350.51
707.20
877.85
1918.86
1261.39
984.39
544.52
452.92
556.78
526.25
434.35
707.16
862.99
588.74
429.66
365.37
621.30
1378.80
1287.88
537.93
335.25
412.59
657.50
961.23
790.41
563.93
403.44
341.62
801.06
278.36
333.67
227.80
233.59
288.72
280.79
393.74
422.32
389.76
484.38
405.03
431.05
713.78
676.85
1025.85
1327.20
1508.00
1006.44
631.98
2162.41
1370.92
508.57
449.20
980.53
843.08
393.10
405.00
325.90
354.44
542.70
565.24
660.13
456.51
334.06
354.40
273.81
1416.60
608.92
627.54
660.59
647.52
579.21
584.78
571.61
376.49
364.94
249.36
299.19
363.35
1069.51
592.59
510.88
349.44
445.99
466.23
468.03
341.78
427.42
505.27
600.64
653.40
636.61
563.61
615.09
496.38
468.96
319.98
342.65
751.82
1440.52
478.58
874.16
722.04
305.76
1664.19
876.41
736.79
640.87
520.93
455.93
463.11
367.66
489.90
518.94
487.93
534.16
558.34
647.16
397.22
556.70
589.75
349.96
446.42
607.57
722.27
825.96
791.60
600.75
651.25
456.39
491.25
506.61
430.31
489.11
708.72
567.49
472.42
294.15
312.67
311.17
435.03
433.77
1495.04
608.14
612.62
509.54
637.94
484.87
440.16
347.97
393.35
403.35
486.59
503.76
470.47
1121.27
664.72
673.45
689.32
683.69
689.92
641.55
537.52
746.57
865.03
885.49
828.72
570.59
443.35
489.37
450.31
374.25
336.72
365.53
448.76
341.56
711.30
353.48
530.66
1126.82
2246.78
844.47
622.47
634.84
512.48
364.41
304.72
784.56
1017.49
730.87
367.34
270.13
440.34
809.73
374.41
366.85
256.09
313.29
362.13
452.57
324.99
416.32
523.67
509.20
568.47
544.94
623.85
393.54
452.11
401.78
447.45
635.52
671.82
605.80
393.96
489.63
725.02
909.63
1786.38
562.76
290.31
345.34
621.67
1662.76
2209.84
1964.98
1105.13
474.84
1219.80
882.09
1332.62
643.75
720.44
532.70
343.69
378.66
381.36
407.74
423.93
535.83
613.50
538.67
473.49
659.19
557.85
545.15
488.90
421.38
324.93
413.87
374.84
366.16
380.11
380.31
574.97
1474.04
445.00
472.58
415.57
427.43
431.65
581.28
619.73
725.06
684.50
571.19
397.75
324.33
881.75
803.83
759.18
613.82
493.56
393.40
445.46
376.22
499.34
652.35
834.04
630.38
380.40
801.58
475.72
798.14
850.96
505.40
409.93
384.35
445.89
480.99
357.53
612.55
877.15
707.29
528.38
440.89
732.89
587.29
312.79
329.75
491.74
542.47
386.27
359.27
395.85
410.94
1295.11
563.90
499.27
622.56
710.99
718.88
617.57
546.19
614.88
507.75
338.08
443.55
619.04
1214.46
554.55
558.20
427.96
478.92
568.15
511.07
302.84
533.68
814.59
672.49
433.22
394.05
370.10
702.78
1201.61
525.58
297.39
659.10
839.63
547.29
470.55
434.72
529.33
696.27
1909.18
830.02
770.34
843.19
781.70
764.13
661.85
463.04
291.44
563.84
1106.52
720.02
333.50
374.14
513.44
667.89
600.41
584.59
638.51
611.69
417.14
463.68
426.30
408.30
392.27
3467.65
472.97
463.60
572.16
496.81
490.16
354.17
458.03
393.46
471.95
900.21
904.62
621.84
1000.24
369.88
466.56
373.51
485.29
593.17
562.72
524.31
608.82
696.73
883.17
933.03
1045.88
1546.15
1700.10
1143.87
471.90
503.60
776.48
1157.14
1383.20
1462.30
1030.38
756.25
1844.94
644.79
339.20
966.20
1708.19
2124.33
1977.35
2136.89
2200.85
1405.42
461.22
524.44
808.71
783.60
725.44
550.62
383.89
330.90
428.69
353.82
333.15
364.73
392.19
661.42
1857.96
941.48
858.63
840.46
573.22
375.22
321.60
394.37
332.15
381.89
489.09
605.68
551.09
934.87
681.58
731.77
628.91
404.94
248.95
317.20
379.77
541.99
912.93
1311.73
1692.85
2706.88
3258.34
4128.23
4125.99
3907.43
2653.05
647.31
1461.93
3123.87
3723.04
3705.93
3167.59
2435.84
2096.85
1358.19
432.36
690.49
842.11
625.83
457.07
584.24
925.53
1232.87
1771.55
1166.63
815.40
753.26
1037.50
988.49
446.94
804.74
927.61
317.16
456.32
452.99
1148.23
500.77
362.53
438.18
396.98
499.71
608.64
433.39
544.58
505.09
442.22
572.67
601.73
870.42
740.47
371.82
577.58
677.33
728.62
1320.20
1125.57
441.49
302.71
486.45
512.41
1120.92
728.82
662.45
677.50
756.78
488.14
346.57
305.47
398.24
560.81
510.65
663.87
685.55
633.14
480.32
524.51
421.89
491.34
584.91
850.24
1347.93
2425.31
3457.21
4171.12
3393.19
1825.72
394.17
2085.48
2667.34
2190.27
1940.32
2139.52
1366.91
452.75
491.13
336.93
770.30
588.67
789.02
707.47
486.24
446.24
488.98
462.27
570.42
684.41
680.40
563.45
368.39
363.22
325.53
364.81
324.94
281.91
324.22
389.65
453.17
585.21
651.27
778.55
679.35
1321.44
596.29
469.20
453.16
518.88
401.45
633.71
907.56
1012.80
1073.28
806.91
494.75
484.66
733.69
465.97
716.62
672.67
564.43
552.90
436.84
361.37
496.67
594.72
627.53
653.16
640.29
573.76
563.96
472.28
380.00
449.81
587.91
519.43
513.01
451.04
435.38
473.65
439.82
1258.81
574.07
540.40
466.96
424.14
412.36
399.94
427.14
471.47
499.85
750.69
1146.42
1423.47
1500.58
489.31
1255.98
1598.78
1172.76
272.72
791.96
1186.19
1124.15
844.00
679.54
1895.44
878.76
595.47
484.28
355.65
459.44
450.70
353.43
373.10
349.92
433.57
357.96
348.04
534.00
374.72
365.10
301.46
386.65
398.33
446.43
697.76
798.13
872.35
688.57
555.25
367.15
1599.74
963.45
316.96
458.67
732.26
719.83
527.88
576.28
625.41
565.72
511.46
478.04
1655.46
339.44
414.24
434.99
555.45
661.73
573.76
585.51
539.00
423.29
489.58
440.48
461.81
698.32
433.54
570.94
645.34
757.17
588.61
641.26
593.43
409.76
455.46
417.15
452.98
375.88
491.83
434.32
595.37
649.57
371.05
372.08
371.30
456.91
531.55
489.49
519.13
542.80
1366.83
604.48
623.13
600.90
636.63
778.50
674.67
551.09
397.25
397.61
371.36
330.95
403.70
717.71
401.42
338.02
539.56
749.75
768.63
430.40
232.27
411.37
622.11
601.01
574.75
502.93
626.53
538.21
594.78
613.50
571.67
598.74
633.89
490.34
365.36
536.46
524.26
507.32
565.34
610.10
687.44
623.39
653.36
637.35
492.27
429.69
463.03
657.18
582.08
578.76
441.31
3193.91
404.45
387.55
310.03
382.51
343.76
349.72
334.37
405.40
571.52
556.53
703.17
625.34
1322.92
762.17
731.51
785.63
591.98
563.58
582.96
551.84
475.28
472.97
473.65
358.88
262.92
410.85
275.98
336.58
324.91
303.66
306.96
296.76
408.74
915.43
1620.99
2536.47
2453.75
1918.80
823.31
466.65
371.49
1451.16
1993.08
997.61
307.62
457.18
449.71
467.64
311.68
638.28
612.61
921.03
1118.87
972.45
805.49
416.42
358.58
409.71
525.27
552.69
290.64
3566.51
1087.25
910.58
581.03
327.11
286.03
332.00
363.98
327.35
452.71
354.14
328.49
420.32
671.18
329.84
396.25
452.49
402.43
477.45
546.97
684.52
670.56
693.81
526.85
532.96
626.95
843.46
845.60
665.07
757.49
746.34
596.34
476.28
380.96
282.42
297.70
480.40
536.33
2926.46
688.30
643.98
587.68
488.00
399.64
446.13
443.24
525.74
520.12
625.28
797.30
1145.19
1359.31
777.45
366.71
445.09
336.19
383.06
309.54
293.59
301.85
437.94
505.68
703.30
3120.33
687.33
939.68
832.06
431.60
319.96
375.62
372.84
328.26
394.12
509.43
612.21
630.00
995.44
449.74
333.89
497.34
1260.18
1967.35
1739.43
736.45
1069.13
2119.07
1934.30
1415.80
969.84
355.01
259.71
583.39
533.54
546.00
597.09
581.66
660.25
618.14
382.69
323.11
1622.60
498.62
680.79
835.90
812.76
580.39
760.23
845.96
586.51
447.85
302.62
743.50
899.40
716.75
251.21
330.04
485.89
377.79
492.43
768.73
1383.09
2015.80
1809.29
953.15
328.31
1469.70
606.21
350.63
308.21
310.81
403.11
520.42
801.09
1211.00
1077.73
498.68
339.43
1663.35
316.07
427.11
279.45
531.24
743.70
745.22
706.77
483.51
848.18
1273.69
874.64
402.38
400.96
442.14
402.63
398.62
365.65
348.78
418.78
444.34
425.94
455.40
579.45
452.54
3088.14
391.29
401.08
507.67
625.18
472.52
484.16
424.03
472.02
577.48
647.22
652.97
754.76
1186.27
785.44
789.20
854.95
801.78
486.49
280.93
276.66
587.40
580.76
354.07
298.29
463.25
482.79
423.28
384.45
378.22
389.40
530.93
496.10
565.40
432.39
398.71
502.82
587.82
3099.84
540.18
378.30
304.28
406.81
622.65
977.57
1631.04
1699.12
1193.04
677.50
355.54
2036.28
1312.91
1458.48
1361.49
454.52
289.35
446.79
434.96
565.31
589.84
897.60
1092.26
2015.66
1118.18
720.27
346.54
390.41
326.98
539.42
455.68
364.14
304.38
333.62
423.69
3541.47
551.21
501.96
367.47
295.09
483.28
517.86
593.76
526.86
517.06
674.82
891.59
1076.71
1462.41
953.51
565.51
545.95
540.92
507.49
611.70
623.12
306.88
334.35
260.51
366.39
3424.65
599.23
596.41
236.85
296.35
414.45
515.79
569.06
592.12
608.69
515.85
441.64
421.40
821.81
403.48
405.66
467.22
474.26
469.47
542.13
495.61
577.23
664.04
659.87
627.00
448.70
608.19
496.84
653.52
694.37
539.73
393.41
357.05
313.93
458.81
676.56
940.95
839.06
567.02
471.64
382.36
397.89
427.35
342.57
406.01
456.35
375.46
364.04
369.21
414.62
561.65
3142.87
459.98
535.53
449.01
441.17
540.61
698.78
581.47
357.73
374.16
340.33
390.90
308.10
943.26
539.58
431.76
340.35
350.48
368.48
372.46
525.42
577.41
603.43
522.54
664.82
761.82
859.38
443.20
466.73
449.80
643.06
834.91
668.83
454.76
312.44
1018.53
1200.41
343.61
1345.33
1036.53
920.88
477.52
324.13
381.66
641.60
931.55
805.63
763.52
579.80
458.31
534.62
836.99
791.36
647.66
571.16
305.12
950.42
1248.55
1177.68
837.64
403.57
324.97
301.27
1688.47
473.57
529.61
746.21
973.13
1092.52
647.77
407.06
335.23
346.41
382.53
399.50
572.52
1052.79
1426.37
1593.79
1224.95
397.96
649.17
1248.26
1146.86
875.29
837.86
540.92
1851.68
390.93
312.30
454.82
554.66
458.92
525.56
526.47
540.14
390.32
470.42
476.43
408.68
824.38
630.63
580.41
500.99
435.57
343.61
537.15
701.49
665.56
620.70
585.10
519.92
442.96
585.10
809.28
879.94
888.00
1034.63
875.51
371.12
1109.31
1480.27
499.93
378.42
475.46
605.93
544.36
500.46
436.87
396.15
418.33
408.66
444.69
508.73
673.63
655.84
653.35
538.56
613.63
405.00
408.59
505.56
484.76
617.92
517.25
465.06
590.94
445.67
477.30
452.10
2873.69
458.86
419.71
373.72
337.50
454.89
483.57
586.81
578.73
438.54
415.14
422.80
504.77
907.60
450.69
447.68
646.93
537.24
526.80
393.83
253.22
336.95
369.85
558.60
607.52
550.97
723.03
512.95
373.63
289.99
340.01
451.60
443.04
453.73
511.55
451.34
505.48
652.02
567.50
577.84
390.02
524.05
654.22
745.55
727.36
579.00
370.43
274.26
351.48
282.06
325.92
2731.44
533.20
498.78
429.09
365.37
366.76
501.93
666.79
912.38
885.36
677.57
569.73
358.57
792.02
388.62
495.10
514.14
421.58
508.55
426.35
320.25
418.42
501.40
374.59
493.40
672.70
973.93
792.29
539.22
383.84
277.74
425.80
531.56
729.41
771.36
745.38
563.59
381.88
384.37
515.60
376.06
322.96
355.02
651.83
1081.89
1177.07
742.37
323.40
462.91
723.38
1009.29
1574.28
867.22
406.58
356.18
390.30
319.98
357.69
417.40
374.53
384.26
428.59
487.32
609.40
858.37
832.29
614.30
447.65
488.95
433.18
568.17
663.75
747.25
636.13
354.93
965.07
3358.67
387.99
782.22
900.71
914.09
927.35
842.00
862.05
628.46
323.35
383.42
685.19
381.19
846.77
420.93
301.91
459.73
838.08
855.88
671.96
265.01
429.86
478.26
544.11
574.99
606.18
609.06
349.93
455.51
619.18
734.27
845.95
955.23
910.31
679.24
527.74
394.26
360.92
466.02
685.33
747.07
665.97
393.71
333.03
326.51
560.89
396.48
324.16
361.51
448.58
555.29
2805.25
1375.99
1856.85
1954.52
1499.22
752.09
321.71
761.42
677.59
411.96
314.14
397.16
1682.60
476.75
700.40
560.22
576.14
478.29
323.54
549.18
706.96
528.99
385.15
633.82
683.53
788.31
483.85
381.30
335.09
773.98
756.22
699.68
472.34
292.40
264.10
448.43
445.49
392.46
481.90
368.25
505.52
597.01
687.58
593.60
498.79
446.82
641.04
595.63
640.32
605.91
2724.24
706.88
626.51
671.39
609.07
405.39
297.43
328.27
329.50
451.42
502.05
473.05
559.47
1180.06
866.16
661.18
465.39
388.45
762.32
653.12
288.77
431.76
442.68
453.37
364.83
384.89
464.07
466.49
500.30
658.02
815.97
446.35
633.18
628.80
436.07
1298.47
1646.74
1476.14
1440.06
518.62
368.24
612.05
765.88
398.44
1265.89
2207.09
2115.52
1024.35
376.76
1281.53
1759.35
1514.27
579.08
303.69
313.76
360.93
576.53
1007.47
1106.40
777.25
406.71
380.05
704.91
1024.69
843.04
414.17
606.81
539.09
574.72
676.44
607.31
518.21
446.36
344.71
1777.93
392.85
466.26
230.76
440.74
673.53
779.74
600.24
439.73
443.47
412.32
306.48
336.40
529.17
510.90
621.77
567.33
592.34
817.80
917.23
892.10
711.41
601.55
353.69
288.24
386.95
321.09
342.48
431.71
500.97
536.29
412.98
358.68
356.28
662.33
908.18
732.60
613.74
2702.05
415.03
355.24
290.68
382.38
497.87
525.49
483.26
310.99
316.78
431.81
342.16
412.80
863.64
521.70
475.33
480.43
374.55
382.87
342.95
394.70
405.97
659.49
563.95
652.97
774.40
1148.88
1427.64
1647.61
1151.49
436.40
754.44
1351.42
1401.33
759.30
542.57
438.22
2832.51
553.95
584.50
591.83
598.11
623.60
749.85
1005.43
1362.45
1272.09
935.99
613.10
2741.76
438.56
633.20
309.94
558.35
833.48
1203.76
988.37
358.44
642.62
859.60
678.19
286.40
577.01
524.39
501.56
527.54
693.51
948.28
947.29
777.20
753.93
381.36
454.76
644.11
683.76
715.43
420.77
284.73
443.22
458.61
525.23
676.22
574.05
422.55
422.80
516.26
462.14
2543.85
498.15
571.86
595.17
360.17
309.06
328.30
494.90
525.86
515.03
371.47
306.38
336.66
788.06
299.19
342.18
514.85
617.29
301.89
349.55
487.20
593.26
673.51
787.95
943.46
672.79
728.53
667.65
357.68
335.88
333.61
437.91
524.69
745.71
622.19
628.27
269.74
575.52
366.17
663.12
674.88
678.97
635.72
460.96
314.14
442.48
627.30
611.00
508.51
395.10
299.92
2575.43
254.84
340.80
414.03
492.24
446.71
497.79
439.39
486.05
603.75
587.32
532.22
402.68
827.94
281.38
262.46
369.49
373.32
370.69
363.52
419.24
390.25
399.26
369.54
356.20
401.12
676.79
357.96
362.47
424.49
413.81
468.12
464.10
575.14
595.96
679.80
550.32
506.07
420.89
526.43
328.70
358.85
476.52
571.53
732.39
580.17
338.87
555.13
541.09
319.07
432.19
2525.67
533.01
485.92
490.91
486.33
515.43
551.95
579.27
476.81
314.28
364.40
429.24
373.50
844.01
482.22
400.05
500.69
672.94
732.11
660.16
457.51
535.24
946.07
1788.25
2228.54
1970.21
991.60
493.99
1862.61
2302.65
1865.56
1126.76
498.54
339.67
353.74
423.41
474.29
1846.22
965.15
606.28
300.61
326.36
383.14
447.31
344.43
433.65
449.85
425.20
392.29
448.58
538.09
362.38
446.85
615.38
629.27
765.40
587.66
471.04
304.51
363.61
447.28
342.73
330.74
500.56
619.38
756.30
490.14
513.49
574.60
673.06
612.95
530.33
490.04
434.80
485.68
2617.72
683.06
651.13
533.90
597.10
426.42
359.72
377.79
483.10
495.09
482.67
470.40
476.63
866.10
476.15
481.65
551.94
392.25
392.92
446.96
520.63
513.82
403.34
387.67
377.81
456.34
719.91
403.17
554.24
1234.14
1237.95
397.50
440.52
855.24
801.96
478.50
853.75
1269.00
2654.85
376.40
461.72
487.46
504.52
744.46
999.68
1183.45
1361.71
731.02
404.51
940.22
2625.65
642.45
318.64
433.89
471.74
620.37
576.13
488.87
431.57
557.36
537.73
689.95
744.87
900.61
650.46
560.40
380.67
404.16
351.89
411.54
396.48
450.16
731.57
811.49
750.12
536.77
633.43
553.83
591.49
598.63
526.88
290.94
441.37
360.61
395.84
364.88
309.49
284.30
2619.64
290.29
308.89
425.19
559.28
566.34
398.12
358.74
404.82
539.26
441.78
317.47
525.52
944.89
348.69
434.93
457.75
486.37
538.01
476.66
490.57
458.86
517.06
511.86
685.78
806.60
1154.06
747.35
496.38
458.05
481.46
377.86
494.19
501.47
429.50
400.60
458.55
450.37
2557.04
520.54
509.17
418.90
524.95
343.90
369.18
318.19
388.92
536.17
525.90
390.73
386.52
960.85
578.71
664.59
713.52
695.72
631.30
508.67
324.10
311.11
365.05
446.19
482.65
406.90
776.53
522.09
493.42
464.43
391.28
611.39
715.77
956.20
968.26
598.05
374.05
336.29
350.60
403.53
344.30
330.49
386.80
492.29
380.97
297.89
427.88
373.29
442.39
422.27
523.67
2404.80
350.86
377.88
337.60
466.91
810.84
707.52
763.22
718.46
716.17
491.06
320.15
452.25
830.61
379.18
577.65
830.25
933.47
909.72
802.28
1079.87
995.64
753.35
650.88
428.85
2488.59
771.97
773.70
633.54
401.95
1317.45
1358.51
1534.11
812.32
594.76
573.67
658.65
2781.94
369.20
469.14
437.68
437.38
384.94
510.26
386.95
424.21
466.46
522.35
442.62
431.12
950.47
535.71
587.40
523.33
477.08
464.17
453.37
507.18
495.55
487.81
478.06
517.19
517.85
883.77
659.68
627.73
485.04
387.85
360.40
327.97
384.46
620.84
785.98
873.03
955.11
941.68
1064.26
1135.84
1123.20
667.59
498.06
379.61
407.13
409.83
369.34
325.24
293.52
361.42
538.72
343.54
761.22
1511.88
1801.76
1116.80
577.07
468.49
961.46
1169.25
1442.75
1074.33
578.97
366.09
441.07
397.65
387.26
685.65
825.49
1152.81
1409.57
1329.77
712.59
315.41
434.45
540.17
559.39
360.40
446.54
602.93
535.62
632.09
681.42
763.12
651.95
552.39
2490.27
684.96
807.66
574.79
373.70
467.39
478.03
498.48
456.48
555.53
563.61
599.97
608.54
1130.33
732.84
668.24
528.10
457.54
419.77
442.26
393.62
455.91
397.21
470.56
447.28
470.94
515.07
488.18
434.30
464.51
448.73
492.41
347.76
495.44
461.07
497.08
478.53
542.49
2446.55
520.96
397.48
446.25
416.14
499.71
442.56
394.53
394.14
401.61
435.37
440.11
573.23
844.78
517.45
573.52
636.72
882.84
800.32
766.21
577.87
375.39
377.25
362.80
306.67
303.62
605.30
476.92
512.11
549.81
602.95
550.10
502.00
478.06
387.06
515.14
645.13
709.88
583.87
552.21
627.26
964.17
618.33
362.99
576.33
697.13
652.62
619.19
597.05
459.41
442.37
1429.41
617.94
736.62
789.15
672.16
616.72
632.50
466.88
434.59
529.23
401.19
396.98
369.96
716.97
944.21
1747.59
2108.00
1689.36
713.80
570.06
1396.09
1884.90
1758.43
1205.36
356.20
524.64
550.98
669.83
925.66
1084.48
1125.71
718.06
428.50
358.49
814.34
856.54
593.90
388.43
379.48
608.00
611.58
968.55
1743.58
2170.97
1953.38
811.60
719.58
1419.67
1514.43
988.63
376.27
445.65
644.28
804.97
712.21
459.41
379.41
384.10
439.29
570.56
572.45
1840.58
366.24
521.50
397.58
521.68
872.88
1332.68
1856.05
1853.59
736.17
1073.82
1513.11
2312.41
1505.59
972.87
451.91
390.56
454.00
526.67
536.77
569.06
657.12
600.79
516.74
1775.44
438.58
548.86
756.21
742.13
670.30
765.05
794.77
784.72
814.58
448.92
568.36
296.04
964.72
615.71
404.18
758.94
795.93
741.45
395.62
391.39
551.28
697.60
627.80
695.19
657.39
653.41
591.38
376.63
574.89
310.28
437.34
441.11
439.71
357.73
395.83
377.95
393.41
2235.07
491.58
482.00
657.90
826.57
946.00
752.68
464.16
500.20
302.64
426.63
648.74
758.31
1448.68
886.44
618.44
412.93
368.71
483.58
328.01
389.78
472.98
444.89
458.62
432.68
513.59
528.78
299.10
371.63
354.31
452.30
573.67
547.77
510.55
558.54
493.52
538.48
531.32
2321.47
553.80
461.17
567.37
609.99
551.62
676.99
940.21
1178.03
1347.08
869.66
484.30
3386.69
1490.44
1305.28
981.33
445.23
471.06
540.65
644.56
573.78
456.52
530.63
547.31
2200.08
630.36
697.02
681.45
547.54
497.68
466.04
336.08
377.44
688.73
1080.10
1705.01
2070.04
2101.98
934.05
479.25
1313.27
1976.71
1604.50
1071.17
501.70
272.85
359.50
384.01
1821.35
351.22
402.73
434.81
491.05
416.46
454.16
455.70
723.94
839.38
513.96
342.67
359.78
684.09
425.76
474.92
410.58
418.38
454.74
460.98
380.48
529.80
670.51
840.95
1008.33
869.16
737.74
640.64
607.13
505.07
455.00
484.13
386.35
376.39
355.91
352.46
351.10
352.30
2163.38
677.80
692.50
773.06
692.30
906.65
1181.31
1031.92
703.92
341.35
539.08
739.67
560.27
453.64
377.43
365.50
579.51
685.91
586.58
436.19
341.63
385.78
514.36
520.64
418.70
2110.96
459.94
542.81
540.15
593.56
616.60
473.45
650.23
741.56
722.14
340.18
306.78
289.71
778.30
307.19
426.65
496.96
561.90
589.39
503.39
521.64
452.89
630.90
635.76
399.57
373.36
720.57
508.79
369.22
319.78
392.05
606.85
853.65
1175.73
1027.02
632.30
387.74
374.10
1509.66
504.79
474.72
482.92
939.55
1203.21
726.54
343.60
382.45
703.35
930.40
689.65
421.91
662.97
654.43
630.22
608.09
422.16
507.99
395.97
390.58
451.32
363.86
320.45
383.82
1956.27
565.12
515.95
526.39
713.41
982.58
1537.05
2756.18
3168.67
2303.19
751.23
881.10
3176.68
2937.17
2612.28
1664.01
507.99
342.62
463.88
494.20
425.34
437.79
493.60
432.06
1005.78
505.96
614.49
528.67
531.06
669.02
762.79
740.19
789.79
722.91
499.38
436.36
400.52
550.57
292.49
352.70
457.26
638.78
762.70
705.74
639.27
438.41
349.01
424.77
380.69
397.17
458.15
395.35
478.29
501.33
590.67
694.24
723.56
605.55
616.39
431.49
411.37
394.04
2021.87
1059.86
1086.06
775.10
467.80
477.31
328.97
323.46
666.43
618.47
291.95
530.70
482.46
408.14
364.19
352.34
457.29
561.27
483.66
689.65
944.41
1342.92
1714.41
1626.45
1155.66
535.55
884.25
1327.91
1278.99
743.72
378.00
774.09
1036.48
1528.85
1449.50
540.32
2948.90
2063.50
2048.64
1033.73
368.78
467.37
580.77
601.98
416.84
414.61
326.71
358.80
1520.32
495.13
511.52
467.66
363.51
523.88
502.44
608.18
577.80
465.78
467.27
529.89
518.52
748.91
573.84
620.55
539.00
413.71
500.98
359.35
806.71
368.22
542.67
689.84
678.38
612.82
683.51
719.54
755.72
588.16
450.65
264.52
438.23
312.94
473.61
993.84
932.01
752.49
1922.15
315.23
438.47
311.20
488.09
473.43
451.98
344.90
324.03
276.06
448.79
476.26
570.86
1163.64
596.98
427.41
328.53
392.18
376.21
436.37
333.40
320.73
398.26
471.09
537.02
490.05
502.29
604.57
460.87
465.66
441.41
451.27
481.38
686.35
728.98
623.01
498.30
553.78
1982.07
417.66
317.52
344.48
360.22
420.91
436.48
422.25
430.91
405.72
327.89
429.35
352.56
897.78
407.16
593.21
709.97
730.71
725.11
482.35
433.48
507.33
453.67
449.01
462.56
538.17
949.28
791.41
619.59
522.80
522.87
375.31
406.61
422.87
515.74
561.72
451.37
425.47
369.83
551.34
398.56
419.27
504.03
495.59
645.68
618.20
445.37
287.94
329.13
453.74
840.65
2328.15
978.34
989.38
925.10
693.39
493.81
432.12
317.27
795.85
1454.75
1733.74
936.05
361.13
510.05
832.63
1543.30
1486.11
536.05
281.38
722.47
430.78
478.36
529.98
386.15
280.44
850.50
553.65
688.34
702.59
738.87
525.24
415.88
486.08
572.43
469.91
411.56
282.58
553.61
677.66
447.28
619.03
444.06
259.06
388.54
910.65
542.59
444.16
649.46
775.59
816.68
850.62
1043.83
848.85
597.94
440.75
421.16
861.93
429.32
282.94
393.93
404.99
401.46
493.24
1615.11
883.76
892.39
775.40
350.08
630.26
651.72
427.11
563.69
599.57
619.20
549.43
459.68
743.31
633.31
480.35
434.49
592.04
676.91
678.62
451.61
460.81
575.44
679.02
666.05
478.48
378.26
367.93
293.26
402.38
441.49
512.30
417.49
324.64
297.53
317.98
382.79
608.80
2045.03
996.74
936.58
664.11
419.01
397.67
371.22
457.74
682.51
289.24
519.18
548.48
529.71
1186.12
782.01
792.16
708.98
498.18
344.11
333.07
460.41
602.79
712.07
676.59
542.41
493.61
648.52
488.19
441.10
473.15
302.06
390.92
569.82
922.36
573.01
331.12
540.82
648.74
2159.55
1540.02
2046.02
2218.01
1778.08
796.67
295.06
1301.21
2002.34
1436.64
852.49
532.69
344.74
324.04
399.01
452.81
648.42
674.92
537.27
585.67
625.21
509.83
547.36
653.66
1680.79
647.43
767.94
934.04
816.10
611.48
490.66
477.85
401.94
355.78
366.89
795.87
1147.88
1356.55
257.14
370.42
483.03
633.74
614.90
727.72
625.76
775.57
535.45
305.89
287.46
1639.01
343.99
325.72
266.13
527.99
867.18
1001.18
771.56
431.69
331.71
474.24
751.52
664.89
1147.54
632.17
372.98
340.08
299.39
399.81
268.26
254.56
311.18
524.93
603.16
561.06
710.88
756.58
585.91
477.03
526.99
553.60
538.61
526.31
762.03
811.64
696.25
403.82
506.47
2199.25
868.42
603.35
474.03
487.27
337.35
540.81
643.43
465.38
515.51
419.46
501.49
499.37
851.43
458.07
324.36
410.84
558.71
556.87
567.14
612.49
500.82
444.92
530.99
609.61
770.40
913.98
315.73
383.52
427.50
467.37
428.71
379.61
390.86
515.79
380.50
330.39
365.83
478.89
692.68
761.74
783.52
573.15
417.42
377.19
484.95
562.40
806.57
564.47
421.29
557.40
1495.55
755.42
697.99
514.61
282.01
550.60
792.77
534.18
416.38
606.24
578.92
344.79
338.18
831.52
548.64
984.53
1180.88
1093.71
937.09
760.44
386.60
375.68
316.96
427.17
745.63
1742.00
365.86
787.91
1105.78
1050.97
398.92
456.74
573.52
665.08
641.47
419.44
386.70
352.12
355.24
376.34
407.54
476.54
581.72
522.34
565.49
789.26
725.99
667.50
507.48
450.30
1464.56
450.41
393.07
531.65
703.11
615.16
553.80
609.44
667.73
603.28
464.46
459.57
353.21
788.76
328.50
322.45
335.81
398.32
313.33
403.27
567.38
589.87
652.92
639.50
590.02
456.73
525.74
339.65
304.03
405.50
419.11
436.91
451.11
352.93
352.17
384.89
348.50
434.99
426.80
589.88
669.28
800.36
876.86
633.41
310.97
903.92
667.04
481.76
924.95
1129.22
590.75
2014.22
349.56
594.38
692.96
617.62
448.70
368.64
282.07
393.56
538.30
820.66
869.80
835.77
986.22
804.01
425.24
435.23
563.96
339.05
479.22
703.14
642.40
528.60
527.09
869.40
1163.19
1307.80
662.58
335.42
424.53
402.15
796.41
489.99
381.63
650.89
803.46
827.16
666.60
1051.43
588.27
552.53
463.85
238.09
388.11
574.46
666.68
525.01
392.36
397.13
496.21
584.76
726.28
638.35
442.38
382.78
451.67
336.72
358.77
323.23
519.28
479.68
524.36
351.57
1369.09
321.88
324.66
359.22
383.32
555.84
654.92
613.21
471.32
707.25
772.27
856.83
935.19
1400.75
463.67
337.81
382.36
473.30
582.35
656.69
589.81
516.72
309.64
304.86
717.75
364.46
527.44
627.76
697.62
907.63
866.45
642.64
339.97
373.78
984.50
1531.01
1248.74
529.11
1300.70
1015.90
1188.40
550.35
370.26
432.64
427.14
329.94
265.82
353.28
327.14
215.07
1603.42
518.09
480.85
513.42
545.71
557.88
514.76
569.46
488.39
366.34
533.01
513.11
410.18
702.22
452.06
602.28
570.37
518.37
713.10
846.78
758.42
807.96
708.28
604.44
564.16
440.09
476.90
291.93
303.63
339.01
318.88
372.81
462.10
590.10
676.46
730.62
708.00
548.35
1362.85
358.59
657.40
709.13
313.04
582.93
594.26
487.64
481.56
585.29
617.32
649.58
844.06
1467.12
1055.59
740.00
484.56
390.36
546.29
448.32
392.13
398.94
607.87
626.55
665.30
1449.95
470.00
570.88
509.96
443.83
483.18
547.61
510.23
766.65
758.97
693.79
424.51
344.22
908.04
351.76
461.51
326.84
402.75
365.72
423.70
707.01
850.50
947.75
1112.65
1069.41
510.07
434.41
467.99
316.48
491.24
636.13
884.59
1033.67
689.26
336.99
660.05
587.65
336.08
1688.57
356.14
314.91
299.32
342.72
286.16
327.28
495.57
460.12
478.51
546.29
519.17
534.74
799.32
837.06
881.11
853.51
665.81
664.93
572.00
381.85
329.15
308.18
526.75
710.06
556.89
467.03
228.76
482.65
372.82
366.50
349.91
357.80
451.65
338.48
312.02
438.16
515.83
1362.13
563.46
652.17
532.00
427.45
333.77
340.55
388.56
379.93
434.60
733.01
829.93
921.11
1459.40
808.77
549.64
463.48
272.69
333.67
441.89
345.86
279.87
379.89
497.62
547.95
506.70
565.73
523.65
512.58
529.26
604.09
503.23
391.81
548.60
674.32
530.42
450.65
367.82
3333.30
639.76
664.66
738.03
918.56
997.34
900.92
778.26
389.45
292.55
329.16
259.50
307.40
849.08
355.19
336.25
729.54
843.61
850.63
833.43
709.07
348.74
318.77
477.97
715.57
643.74
858.85
375.29
318.57
418.18
416.74
314.54
478.03
455.04
315.41
295.02
356.68
361.08
315.18
634.87
795.28
866.15
866.00
501.89
341.82
277.96
351.29
343.80
292.68
354.47
416.48
1355.50
466.72
599.08
704.50
656.50
595.27
559.07
552.70
473.73
377.28
347.04
327.67
510.48
1025.32
620.48
644.71
504.83
792.27
1166.42
1475.72
1429.83
980.52
417.67
402.30
810.80
1375.84
376.47
324.09
341.50
319.15
608.64
857.90
1129.40
1399.88
1127.68
549.31
451.65
1416.03
432.66
738.44
1051.02
1021.75
524.36
420.40
564.74
617.87
615.07
611.34
518.66
1682.70
410.75
463.40
460.79
548.43
430.37
341.47
392.98
623.02
756.94
749.23
693.70
676.82
713.63
370.53
393.49
459.31
395.89
349.66
451.25
439.96
324.31
447.58
464.69
606.53
619.75
841.57
741.77
891.78
740.54
370.63
461.61
334.66
372.88
541.22
361.84
559.22
369.84
3223.63
478.55
502.40
451.93
538.06
658.20
574.64
422.59
363.37
291.99
318.20
459.77
611.76
1128.54
550.43
386.46
495.46
442.09
458.25
458.03
444.22
492.99
470.38
458.78
418.88
253.25
364.82
383.56
322.43
422.41
434.45
435.26
434.12
417.41
332.08
485.39
577.46
710.32
3240.95
570.70
701.14
705.75
761.29
843.79
694.96
754.76
570.71
312.12
465.54
889.76
826.74
1086.50
238.06
404.66
563.74
575.31
740.76
844.48
948.54
897.08
633.82
417.43
969.31
635.67
350.57
454.85
618.24
740.53
940.92
1062.30
869.18
749.99
670.32
540.06
381.87
456.57
2154.33
377.71
364.56
550.01
439.95
468.61
462.35
343.01
373.81
437.54
587.94
945.64
1285.99
1641.66
1039.47
501.11
449.12
816.89
663.26
310.04
483.70
616.87
890.21
855.22
818.00
1178.01
393.15
499.90
622.73
446.29
605.52
1218.30
675.31
374.69
614.53
685.16
730.30
1296.33
455.63
439.89
380.06
317.69
440.64
516.61
616.10
483.45
406.25
240.75
388.50
353.12
829.67
368.79
374.03
406.78
467.91
635.92
634.05
796.04
668.25
435.66
351.11
426.47
473.36
821.94
707.08
790.63
1017.12
1080.11
1035.06
732.79
492.21
416.83
304.37
265.15
335.63
369.39
610.05
535.03
479.56
589.16
409.55
364.62
511.42
832.48
716.01
583.28
529.29
420.89
3494.25
783.68
701.03
777.72
622.73
428.85
340.42
357.90
443.50
571.86
732.69
919.48
912.44
1324.15
400.69
309.58
497.87
544.33
437.77
701.83
726.16
701.64
738.73
710.27
547.76
385.44
439.26
396.76
432.32
251.90
428.73
513.26
717.53
773.52
942.16
827.61
941.13
821.84
3225.77
497.28
363.82
656.50
787.56
796.63
363.76
366.09
518.92
551.49
795.00
843.40
501.43
1054.64
569.85
463.56
421.66
417.78
440.07
460.48
563.65
596.73
652.29
682.67
651.76
512.30
490.43
528.03
341.33
318.27
441.09
489.48
460.46
395.97
460.81
410.88
586.35
637.45
3113.83
609.85
613.01
555.98
555.78
447.71
538.83
621.13
463.50
370.75
393.74
474.77
536.54
1160.63
561.41
382.13
340.97
524.31
437.49
296.98
477.62
625.38
702.50
634.31
425.90
344.96
402.50
341.73
509.33
510.54
492.31
354.97
341.33
334.73
246.81
275.03
323.09
335.63
3190.09
793.96
827.10
588.80
499.75
588.17
615.22
624.10
596.86
643.60
657.61
535.37
354.11
925.63
464.40
458.44
638.11
644.71
797.78
1049.73
1142.24
881.60
698.62
463.96
308.95
1329.19
352.68
278.88
313.30
283.23
357.25
267.75
373.00
353.74
409.57
391.89
406.55
402.20
820.23
274.75
295.72
319.50
451.43
619.32
689.18
552.25
637.58
683.12
1119.27
2096.82
2933.33
2968.83
1538.48
842.26
2741.25
3439.56
2935.21
1713.59
441.80
446.80
672.84
797.37
1215.10
936.38
868.90
678.24
467.62
441.19
372.40
284.99
399.29
431.29
597.10
569.58
3023.54
787.03
921.90
786.01
1056.05
1127.13
675.70
412.06
825.65
570.80
384.56
418.11
593.10
820.85
720.11
831.68
671.48
296.60
489.04
327.99
389.69
486.83
552.76
610.72
535.15
1275.65
551.85
576.42
628.88
765.72
905.80
962.20
1045.77
791.49
717.19
864.91
635.64
302.34
713.55
354.37
496.60
741.67
635.38
526.97
378.13
397.64
443.21
432.76
450.64
492.56
387.15
417.33
439.17
401.29
440.94
676.52
802.20
765.50
760.68
843.81
670.37
393.18
699.01
1315.27
340.09
299.56
265.99
407.24
466.10
585.47
698.65
655.07
637.16
450.34
349.48
344.10
701.99
366.12
551.04
648.16
650.43
457.92
352.17
359.57
572.65
661.60
726.00
495.29
589.32
1008.20
883.56
596.47
668.54
1229.23
1406.97
1329.34
777.63
303.27
1011.05
1278.05
458.15
471.31
457.94
365.98
366.69
723.17
949.42
374.97
482.73
679.54
1000.83
1179.55
977.66
2209.96
367.36
419.04
518.58
761.59
814.56
751.31
930.20
668.61
440.22
389.89
408.14
335.20
782.01
1101.76
677.16
392.78
503.35
355.53
394.62
492.75
1084.17
934.96
606.22
331.45
752.25
349.36
433.34
612.25
604.75
585.20
631.74
666.30
1028.96
1001.38
636.61
323.72
415.77
557.17
527.07
453.78
370.98
323.83
395.31
479.86
486.30
499.64
459.21
455.67
368.09
3022.03
613.12
503.23
572.96
761.98
579.50
335.50
457.96
589.21
656.55
516.56
481.28
424.95
838.66
408.65
451.96
380.63
422.70
464.12
416.71
296.92
308.88
384.72
539.88
640.67
993.07
1580.91
1419.80
884.38
807.72
991.10
1455.40
1245.60
547.96
1010.39
1723.26
1635.79
2644.33
402.05
841.65
1564.60
2585.90
2194.88
1475.54
555.02
595.71
2082.28
3325.39
3513.28
2116.01
640.86
614.66
1166.87
803.20
617.72
966.13
1241.34
960.10
359.08
909.95
3484.88
291.43
292.81
457.28
434.08
369.21
513.03
685.82
721.79
836.56
812.06
796.90
814.41
1072.14
439.22
418.52
262.04
427.55
604.98
496.36
485.92
605.37
526.26
394.70
486.75
352.05
768.32
810.73
405.85
415.98
880.51
1431.07
1592.05
1552.31
946.98
527.68
757.35
840.13
723.65
434.88
306.95
619.91
759.86
738.11
374.98
296.31
319.61
292.15
357.55
413.55
509.13
718.50
504.06
629.21
595.48
675.50
809.50
995.77
842.01
526.27
426.86
494.36
325.73
1789.83
309.54
324.15
362.84
376.50
833.37
528.50
278.30
431.96
818.10
1428.99
1907.68
1512.29
457.10
811.68
331.44
678.67
866.49
422.79
377.35
402.14
618.28
1300.95
2538.14
1641.98
436.00
1949.42
3496.69
3005.57
682.23
1216.81
2301.39
2528.18
2699.83
2003.20
774.93
675.53
1353.21
1957.22
1397.92
703.40
272.96
322.11
372.80
702.52
674.51
378.06
297.29
1259.47
1217.32
1105.17
1469.08
1565.30
1243.21
1400.33
1028.85
411.22
616.04
1079.82
1814.79
804.86
368.98
437.71
276.71
437.64
486.07
1187.38
1055.87
653.67
590.43
594.45
825.92
327.06
329.51
318.19
426.35
441.79
883.23
1561.33
1739.60
2184.11
2580.98
3674.52
3174.02
1581.06
631.84
3036.08
3404.57
1887.09
398.02
866.79
663.38
416.22
605.18
657.82
345.40
404.87
612.11
1045.61
1021.23
592.59
346.86
1331.08
1556.34
1740.40
992.54
527.12
1051.84
899.94
312.30
355.86
612.40
754.48
588.13
362.69
360.24
341.02
332.32
298.09
877.40
574.00
567.73
637.94
547.66
557.51
766.23
1238.69
1293.67
804.18
407.03
435.26
2841.76
1105.12
1285.39
940.65
417.63
1368.37
1436.29
896.87
324.08
1079.76
1784.43
2003.28
1153.96
681.94
303.43
1123.40
1401.62
997.66
320.68
456.65
350.24
304.25
360.39
374.94
701.59
409.13
524.54
561.00
325.55
950.23
676.94
403.27
716.65
726.48
500.06
386.04
338.24
439.28
309.33
427.08
416.39
362.64
646.68
947.01
1093.08
865.73
683.01
437.40
397.49
1772.03
636.80
701.31
646.70
658.08
718.84
709.50
439.22
270.51
577.65
902.65
556.99
282.08
905.38
1389.04
2772.92
3707.82
1807.12
423.36
724.03
813.79
415.71
980.32
975.41
512.98
724.84
1422.44
1964.41
1770.47
920.69
583.24
1292.34
629.33
353.16
288.35
385.70
496.42
805.79
823.18
804.72
940.59
1198.22
1110.41
480.07
532.07
721.08
766.70
464.52
311.62
1826.56
375.83
384.95
625.47
1049.79
559.68
815.15
1417.11
449.02
821.94
460.73
417.16
407.69
602.16
735.30
739.57
1028.15
1039.79
1438.72
1875.13
906.84
435.30
547.43
317.03
321.02
921.54
1141.69
862.42
806.59
527.53
443.10
363.59
1133.54
2419.84
1986.29
1470.82
420.04
1186.16
1430.36
1602.05
1718.97
1435.62
901.32
575.49
360.27
306.98
814.07
1515.44
4133.47
1461.65
619.00
677.35
647.22
421.46
476.35
304.31
424.87
438.99
621.37
799.07
1100.28
1832.28
2077.03
1425.79
438.12
739.09
337.71
526.19
435.95
535.05
356.19
511.81
428.92
507.19
401.77
610.50
569.38
505.87
336.13
573.28
1483.98
799.44
452.01
760.54
801.85
1838.55
796.74
1058.34
856.90
545.11
441.88
318.61
410.41
761.66
796.01
583.29
1352.99
1036.12
496.72
541.72
573.99
530.23
1173.32
1421.55
616.57
533.96
357.43
370.89
478.38
691.94
592.33
342.11
468.78
1073.94
1797.60
1614.25
848.18
435.11
464.79
810.61
758.67
689.29
961.22
495.44
478.18
453.40
820.47
1223.02
1126.62
571.23
405.81
412.63
373.06
416.91
2876.88
571.15
494.26
338.34
312.22
532.15
644.36
597.57
456.76
357.39
376.31
452.78
1006.04
1567.08
1330.42
959.03
692.74
560.55
494.41
741.98
1184.51
2224.83
2973.98
4056.44
4127.95
2336.54
400.60
1704.50
4161.14
4230.42
4151.67
3538.07
1612.14
393.52
345.87
381.19
974.03
759.88
407.49
359.00
495.82
373.84
625.45
1102.37
1356.43
782.07
686.62
646.62
2946.32
334.28
1103.26
1429.95
549.45
493.30
1168.58
621.47
380.21
675.24
1720.15
2072.37
1795.21
1038.89
445.87
759.38
381.67
813.31
1557.21
1093.96
372.60
666.41
832.64
489.61
1182.70
1040.62
655.22
363.00
361.66
476.70
854.17
974.11
699.14
532.23
642.62
375.46
1820.24
439.68
339.06
472.98
298.04
328.88
762.33
1528.55
1006.49
547.07
428.13
754.98
2880.58
1556.99
923.80
476.10
1351.80
1152.17
510.95
1016.82
1025.27
655.85
607.97
783.14
1282.86
1152.24
1018.39
766.61
440.05
438.36
614.13
419.98
368.04
410.12
319.74
602.48
3671.65
902.37
821.30
474.16
328.77
449.97
623.61
614.25
424.43
550.59
782.08
746.40
701.25
1345.20
508.77
333.38
462.82
785.08
933.17
600.56
395.14
669.99
450.32
301.72
547.35
568.34
596.75
453.06
728.65
712.90
275.24
345.88
579.11
518.78
372.63
575.30
826.66
798.23
2638.43
776.84
768.84
921.48
1724.71
2305.95
1465.48
1369.11
1254.94
1225.02
495.47
1266.26
2624.24
3077.33
2220.39
962.43
375.62
573.75
845.08
362.71
754.22
1102.37
818.10
662.87
660.10
560.33
530.96
454.17
620.04
568.66
472.69
389.12
417.16
432.73
310.22
1102.54
3026.05
1364.93
469.03
321.14
504.96
1421.17
1701.19
1718.97
1771.38
1448.77
661.18
1645.19
2677.98
2046.05
2070.50
1552.78
948.62
349.42
790.93
1098.17
1449.36
986.68
469.40
894.42
613.50
936.17
805.94
433.14
641.93
852.15
1215.27
1721.34
2104.59
1877.46
1341.32
1452.25
1056.06
964.64
609.19
1137.67
469.72
692.65
1391.36
1472.70
1444.78
1373.30
706.48
458.48
426.21
627.31
1458.75
1686.04
1610.84
1076.54
604.37
626.20
550.81
699.67
3705.79
247.93
408.63
391.46
305.79
342.46
589.31
1093.22
1096.29
585.05
696.33
1248.75
777.75
402.80
456.81
557.13
805.22
873.08
866.37
571.93
386.13
551.91
636.15
968.82
1139.29
1870.23
828.75
1397.67
1417.38
1639.23
1715.26
1481.59
923.65
782.78
945.65
404.03
816.44
1210.22
934.21
732.49
1824.26
1638.53
702.53
489.19
1443.27
1726.64
1399.67
966.08
3423.42
557.65
398.81
418.84
409.04
383.45
707.08
1159.96
1535.92
1389.07
745.50
448.92
2321.15
411.87
621.25
354.08
402.45
574.95
1413.01
1388.88
633.48
656.19
496.29
751.85
2703.86
1521.26
1800.27
1205.26
710.64
446.72
509.69
855.69
1036.81
1013.01
1316.04
771.93
1078.69
632.72
532.42
354.98
460.71
475.81
592.13
579.05
448.97
471.81
535.79
551.57
685.73
789.10
522.26
646.09
722.29
740.99
430.74
345.91
378.91
317.78
421.38
566.78
631.86
2703.09
317.21
412.02
377.59
510.11
469.91
466.68
686.77
759.43
604.01
499.77
351.63
530.17
877.04
772.99
1453.92
969.90
348.82
514.64
721.50
1254.52
1906.47
1849.28
1210.75
654.36
831.63
409.41
932.11
1752.03
1639.84
1326.85
426.14
1334.71
2258.52
2635.68
2517.86
1917.29
951.08
545.05
336.34
614.55
1214.87
2081.26
1859.08
2043.24
1474.52
643.03
677.11
1038.43
356.85
642.31
1460.42
1765.53
1356.07
592.05
1354.00
2647.96
1983.45
769.44
2888.88
1291.89
1275.32
1843.22
2599.61
1879.81
849.84
276.01
673.40
908.31
603.74
2129.61
2508.41
684.28
1406.46
2313.47
2034.81
988.16
662.88
1098.79
991.87
1345.43
1235.90
1335.46
443.52
632.24
490.79
319.03
386.62
389.65
417.57
564.90
491.61
478.83
587.10
2641.59
1093.49
927.40
605.97
488.95
452.80
737.42
913.70
480.59
1098.19
1158.23
414.51
1149.69
1570.63
1963.42
2214.29
1813.38
1247.41
914.23
1258.65
1791.12
1704.68
1452.98
608.94
1222.16
2210.67
2390.91
1780.77
635.00
356.73
418.90
524.53
659.70
826.26
778.79
2222.83
385.58
593.59
741.78
902.30
1655.10
2666.83
1790.37
680.31
925.37
1884.97
2161.79
2183.89
418.78
1053.27
2296.72
2268.50
1096.79
392.36
1337.50
1620.81
1273.64
652.82
1354.28
512.17
735.81
720.35
646.70
419.87
374.90
473.70
845.65
875.99
713.19
489.09
392.82
591.84
830.94
1115.40
1033.46
376.34
399.71
556.15
1193.68
1584.73
1909.14
1441.54
495.83
1174.97
1177.04
341.27
744.17
1222.73
1462.12
1704.98
1868.85
1020.39
607.62
1200.01
2343.03
2026.53
637.10
1244.60
1706.84
2131.55
860.25
662.74
1159.87
525.38
557.33
2744.18
1647.78
1415.52
449.44
397.25
567.86
844.56
670.80
399.58
1683.30
2255.16
950.14
1420.25
547.35
392.54
535.13
587.42
620.68
652.04
964.02
1210.51
1408.73
1138.85
1015.34
1447.33
665.85
462.57
387.25
374.22
429.04
430.20
435.45
613.92
691.78
634.59
608.62
2785.53
1103.93
452.96
549.69
821.16
1438.18
1227.27
453.58
589.28
1201.54
744.15
361.65
1835.25
1055.88
795.33
834.61
707.99
896.95
2133.50
2450.54
1083.71
558.43
623.38
825.58
1490.64
393.49
416.45
363.03
345.87
321.70
502.86
365.53
837.56
1133.37
473.00
688.32
2496.77
404.10
609.10
1602.14
1394.87
459.10
869.72
751.37
997.74
961.13
341.89
633.37
411.80
1353.13
2586.16
3222.48
1592.85
1057.96
1811.07
935.25
496.23
772.59
1709.54
2858.62
1674.72
402.33
336.37
404.06
558.30
1171.62
1319.74
1252.77
545.05
576.74
766.09
425.02
1187.34
464.01
570.59
888.33
1020.99
792.55
409.15
713.51
870.50
424.14
907.73
1035.25
1929.66
566.10
735.18
1006.87
658.20
410.72
315.05
530.65
889.17
1845.13
458.41
780.43
2404.89
1140.99
661.35
563.93
683.51
517.52
504.78
386.28
674.48
548.11
372.89
1183.97
1725.20
1664.17
1013.54
509.80
946.67
583.92
481.31
695.61
1101.10
2023.63
845.73
371.11
2431.26
649.20
616.28
467.85
349.07
664.69
509.98
351.46
387.08
598.73
684.14
652.52
1705.72
1481.24
518.30
554.39
388.73
556.85
485.08
335.83
485.30
558.33
699.16
1140.53
667.05
1876.21
419.89
547.64
710.22
599.00
452.71
368.01
379.55
560.96
765.51
321.40
1007.11
1557.55
1436.32
686.67
1203.49
1662.96
476.05
649.40
722.86
785.21
513.50
544.03
1369.55
2018.86
2224.18
1538.91
990.50
583.85
2732.00
2373.48
420.35
769.72
1128.42
1275.78
616.42
1453.77
898.79
479.31
775.25
684.02
1697.38
3300.51
2956.52
2219.00
602.66
1775.91
2509.77
2891.68
2165.42
446.36
1120.55
1372.53
906.38
420.90
388.62
633.34
469.43
539.84
465.73
625.62
532.36
322.74
1403.26
1583.86
504.17
483.54
599.25
840.04
1066.05
867.53
412.10
971.56
1302.56
820.22
381.11
620.92
1038.29
1403.05
2703.70
3084.41
1997.72
832.20
742.70
2586.85
4176.40
3343.95
1430.47
592.83
1827.81
1930.99
542.29
1042.43
1130.42
556.57
1485.77
674.12
423.74
454.91
405.24
449.79
524.71
398.92
296.35
547.17
693.55
662.85
2488.40
949.65
425.51
948.30
427.04
618.16
788.90
835.51
498.44
399.03
464.20
417.07
386.54
1059.67
1324.20
1468.65
1370.44
1320.38
825.19
534.24
392.36
319.95
349.82
326.74
322.60
817.08
527.89
1054.86
933.09
438.58
394.32
417.39
1051.56
430.66
317.51
634.36
596.51
1536.85
574.47
647.38
433.80
505.51
750.79
1276.07
818.78
688.15
449.59
845.94
1274.63
946.87
825.92
498.96
1352.51
1382.64
856.67
385.05
482.40
540.81
670.84
403.94
525.43
799.11
1267.18
636.25
334.32
621.89
1437.70
1924.05
1264.55
608.83
374.59
959.17
1148.54
817.55
482.70
760.78
1869.92
2285.93
1063.37
820.43
1286.00
930.25
467.61
536.47
415.03
786.64
1442.69
2214.23
2086.23
729.78
661.21
1002.03
772.34
652.50
399.45
746.63
1195.74
1424.62
1513.73
1159.87
970.87
662.05
1289.18
1854.37
2081.34
2585.23
1931.55
618.97
437.88
925.91
588.86
610.93
521.57
761.20
621.40
562.62
851.45
1094.80
1023.89
1132.75
753.31
2110.86
817.21
374.22
548.42
684.44
597.23
1296.96
1555.59
856.67
1079.35
1136.51
1481.56
1922.00
754.79
623.65
1025.75
1568.42
1411.43
858.69
673.99
319.85
432.36
563.58
494.36
1461.52
882.02
337.89
960.18
1035.14
825.78
1040.95
671.17
592.51
1108.13
1309.97
1258.26
1289.28
571.71
488.50
867.05
605.79
1242.24
1420.99
565.84
591.56
1160.76
901.62
773.04
1436.40
1774.13
1104.31
781.22
781.27
749.33
699.01
326.80
372.20
775.62
618.75
2202.02
3252.12
2063.30
1007.25
581.47
379.89
651.92
758.41
371.96
1088.41
2183.94
1551.83
612.51
534.02
344.41
444.67
385.73
1308.71
2836.15
3129.40
2687.09
987.09
438.13
471.93
2182.90
810.69
1534.13
2313.89
2948.03
2509.39
825.21
657.78
1456.84
3122.81
4141.77
2698.38
1793.53
1142.47
361.48
544.91
510.88
318.74
354.06
472.43
439.65
383.30
598.40
357.69
1059.23
885.37
1550.89
1314.98
743.45
768.85
1410.59
1829.78
942.36
618.27
535.77
641.76
863.39
456.15
325.25
377.11
534.64
460.28
259.32
386.18
341.07
438.33
530.87
489.39
2222.15
547.13
586.48
554.57
557.21
390.71
404.30
534.06
425.10
536.80
758.05
532.61
441.46
1038.19
386.48
508.84
389.38
338.44
317.12
426.14
864.37
1173.28
939.36
889.78
792.63
404.23
622.66
836.71
752.87
471.67
541.88
765.49
919.62
824.56
994.77
2289.90
1594.67
406.91
1302.27
1482.70
1474.87
524.82
430.22
655.09
2152.97
1619.49
476.10
431.55
387.41
802.00
1658.25
2107.71
2081.28
1459.99
474.22
1952.39
3203.79
2852.24
2135.78
1243.63
572.47
1831.71
2059.12
1417.25
526.72
915.93
665.85
716.93
1174.76
1209.74
908.49
751.02
2348.64
661.10
338.06
420.14
851.74
467.14
563.10
486.96
600.55
790.60
377.67
997.12
800.43
885.22
364.96
514.11
699.85
1023.87
1323.58
1393.36
898.45
640.92
719.20
724.15
524.66
1619.61
709.83
557.20
748.36
391.64
1288.32
1395.78
470.67
812.68
1005.74
1140.39
1954.55
3059.35
2776.22
1455.84
425.57
1264.58
2754.37
3649.47
4110.07
4179.34
1825.18
382.39
2384.98
832.69
710.24
544.92
588.32
1336.20
2601.93
2488.71
1295.21
577.54
504.18
603.16
1279.42
1362.05
1848.87
1492.23
705.92
676.10
390.12
1146.69
646.77
837.64
1528.66
1298.74
931.15
359.67
981.92
828.19
502.40
560.60
495.32
731.25
1039.56
1080.26
861.85
677.83
506.29
372.88
1039.93
673.76
315.29
782.29
1004.32
566.09
484.78
389.25
484.69
1829.64
2017.24
386.70
938.58
1201.80
970.21
439.09
1348.72
2100.21
963.35
487.56
553.13
928.65
1242.93
1060.96
1864.38
2110.87
2062.61
729.14
347.46
296.69
287.99
437.36
697.89
401.25
712.14
533.15
453.86
427.62
460.08
369.41
389.48
447.41
506.49
580.76
660.29
813.74
2227.30
429.83
280.00
377.40
284.49
325.29
334.32
565.05
696.53
899.78
1474.94
1453.44
1058.00
943.16
545.55
463.43
338.64
251.90
830.88
1174.81
1221.69
620.75
626.86
560.22
627.52
814.39
281.98
614.60
389.77
481.42
935.72
697.80
719.22
1180.67
1448.83
1422.04
1934.85
3556.11
1742.92
485.15
511.98
979.67
1275.51
1476.23
1629.08
1397.42
634.50
359.91
2419.56
371.24
1017.73
1589.63
1595.08
1757.57
1375.80
399.73
1980.71
1817.83
1471.26
1356.09
888.65
387.24
695.89
878.22
665.59
618.86
1319.37
2576.04
3241.98
2615.54
1676.73
3163.67
610.21
1446.93
2050.61
1420.29
406.66
1949.02
2239.66
1399.44
688.09
661.34
2271.02
1429.85
1110.76
406.66
368.02
452.79
476.82
539.32
1339.20
1999.04
1779.52
1082.17
1457.83
385.22
668.40
962.08
690.71
552.30
1359.41
2344.94
1892.69
681.13
292.66
806.55
1936.92
1592.44
1177.58
820.90
690.10
964.45
1296.92
1564.36
1581.15
1233.46
1013.22
3211.71
552.32
461.13
355.63
605.89
1223.12
1410.30
1443.40
1981.44
1930.25
1072.86
493.04
819.82
427.95
1188.63
1581.69
528.39
1589.25
1960.98
2096.78
1960.48
1741.62
1031.27
1113.48
748.61
447.25
387.06
337.89
593.28
553.07
595.74
580.32
774.91
798.65
337.64
1833.20
357.74
331.59
542.94
706.25
549.82
297.72
470.89
332.86
641.85
797.75
753.70
681.78
1025.01
260.21
1112.02
1126.82
419.50
954.91
1073.96
810.75
807.83
499.93
340.85
259.15
941.13
746.38
500.40
737.10
784.93
691.11
822.88
982.91
833.97
284.87
983.62
628.21
609.74
918.39
398.08
555.05
826.35
925.29
637.94
549.71
399.50
441.67
961.26
1331.27
1152.64
2073.72
412.18
545.57
565.29
650.58
1013.31
1102.76
795.37
371.30
622.99
863.43
1272.61
2351.90
1231.45
1092.34
1936.28
2983.22
3245.20
2598.65
1273.93
359.77
1630.87
2479.26
2387.26
1037.38
797.14
799.32
321.97
527.63
325.92
802.99
1048.68
366.36
1158.65
2525.83
2918.20
1418.69
547.57
868.94
1542.28
2011.88
1224.12
784.56
840.85
397.70
350.19
921.47
1458.74
401.15
1126.87
1358.98
1410.68
1268.78
908.84
562.82
327.50
333.23
457.76
869.59
1218.70
1239.90
1576.16
1800.05
1265.67
292.09
1308.43
909.12
880.38
2332.66
2453.01
1827.34
476.94
1172.73
1391.07
759.70
484.61
696.40
534.12
484.51
905.90
570.51
440.37
813.48
400.70
255.13
533.36
1084.00
1422.65
1470.37
1069.80
377.34
565.95
794.61
1245.67
1433.56
460.78
676.79
1469.03
2790.73
1537.95
463.41
496.05
316.04
311.42
275.97
677.30
447.56
339.68
559.07
570.50
601.09
332.00
378.77
603.12
762.09
757.18
597.73
508.88
538.43
649.43
593.93
645.76
906.88
1005.14
891.13
564.35
289.65
451.78
856.33
1712.17
1928.70
2031.14
1030.43
642.59
600.50
593.67
373.90
264.94
392.48
529.31
301.97
626.24
1058.08
2643.19
1707.19
1439.68
898.47
385.67
452.14
647.80
526.35
344.06
440.96
506.71
477.92
1514.87
429.65
549.88
539.27
387.28
316.37
369.10
331.00
591.53
459.16
401.34
407.34
363.15
682.02
611.69
573.39
532.94
512.61
595.39
565.64
324.93
318.18
573.14
636.31
724.44
648.24
391.50
293.23
299.37
300.13
333.26
405.42
509.70
617.93
646.98
616.52
623.37
497.05
1515.24
429.54
561.56
761.09
757.26
672.44
409.34
288.48
377.61
268.51
528.28
800.52
937.91
1368.50
707.93
628.64
355.47
333.51
433.61
392.02
567.84
367.40
307.88
305.46
392.22
409.83
650.16
704.32
600.09
328.30
508.16
339.18
392.97
323.61
283.83
408.29
568.91
414.39
1419.02
581.76
508.26
563.07
699.87
788.71
609.06
383.90
321.02
575.23
1095.13
1206.00
1253.16
1331.39
948.79
393.46
344.56
309.49
506.11
608.14
715.99
463.43
358.02
330.63
511.64
845.42
589.87
740.11
953.35
930.67
1033.92
1448.03
1477.34
1176.33
345.07
851.64
1326.40
1491.28
392.82
631.69
925.13
825.79
616.33
218.87
594.05
328.41
511.25
745.89
625.71
2278.12
394.64
353.07
604.72
656.17
647.32
611.51
1085.27
1718.95
1463.19
752.28
382.29
2288.82
845.93
787.24
379.51
709.12
1153.34
919.49
727.95
723.21
663.34
730.28
828.49
881.73
1143.19
991.53
608.87
266.11
333.72
395.40
742.11
1021.21
1177.17
933.94
585.65
306.98
717.59
345.78
417.98
445.47
424.66
509.74
508.56
465.70
438.39
402.23
428.61
530.76
886.08
1424.16
1380.64
854.93
654.32
391.74
304.55
315.15
343.65
385.28
458.76
591.56
813.46
1350.45
870.90
616.86
280.93
315.75
354.71
812.87
1331.31
1561.27
1662.99
916.56
731.82
1779.17
1505.92
1167.16
552.25
338.15
494.09
772.15
833.53
611.62
284.24
331.85
364.84
1554.58
506.80
474.21
542.08
629.52
594.07
734.18
933.60
1017.64
842.09
628.04
480.85
376.55
636.44
534.10
330.31
341.14
327.07
388.89
441.48
557.83
768.73
770.20
756.70
939.35
1863.24
901.32
810.92
769.54
512.27
302.24
359.46
620.85
952.94
947.66
853.14
729.95
592.93
1068.47
383.53
355.16
578.80
565.86
298.39
285.09
292.12
326.55
359.85
285.46
345.30
370.41
511.14
399.68
374.62
417.61
817.52
999.69
890.23
779.13
724.68
708.77
649.46
441.05
1371.60
444.72
279.60
403.93
378.05
333.68
277.65
415.02
569.09
676.62
1003.44
1412.81
1471.56
1349.13
1356.28
1364.17
1007.89
685.23
573.74
503.09
567.31
464.60
432.60
554.29
513.18
473.57
441.85
317.74
274.07
328.49
378.62
319.06
426.16
448.65
384.24
350.87
394.06
2214.22
817.75
799.80
841.12
599.40
579.01
1004.68
671.96
341.19
636.58
680.70
620.82
504.85
968.41
702.63
911.55
1228.73
1374.43
1255.48
932.13
657.84
401.80
420.32
634.62
620.40
891.60
400.53
710.52
1058.46
1510.46
1303.33
721.71
899.39
1862.91
457.60
1284.70
2720.07
3106.78
2248.62
534.04
729.41
986.02
714.39
311.07
843.22
941.17
865.94
811.89
795.25
1317.15
575.88
611.85
507.29
316.98
291.14
300.51
435.96
570.49
393.13
394.09
358.30
314.30
546.53
459.98
356.80
595.24
583.76
341.64
230.80
276.83
379.05
398.42
549.23
701.90
1368.39
718.81
616.71
480.49
448.16
438.32
296.45
301.44
455.86
598.55
670.54
597.79
517.56
1114.76
588.73
559.90
545.31
465.32
346.46
297.46
295.05
380.68
363.85
343.59
506.99
416.13
605.98
557.29
472.55
574.16
555.81
424.44
355.49
406.13
559.99
627.40
521.36
526.84
1391.39
1024.08
1332.32
1803.82
1642.03
1059.53
739.63
613.18
729.85
986.14
1302.71
1159.90
772.17
344.09
525.01
523.87
563.25
996.66
1459.74
1552.48
699.68
499.47
461.65
292.00
530.83
266.17
348.34
352.83
603.47
515.65
239.47
525.12
753.66
799.72
949.58
767.43
634.94
611.55
642.72
509.03
257.35
538.27
419.73
365.90
706.75
632.71
393.66
789.87
778.31
3145.54
549.53
526.93
741.57
786.84
757.15
875.25
836.63
766.25
635.62
646.58
448.98
610.68
1214.28
714.85
755.52
878.60
714.78
775.94
662.64
573.27
397.28
1376.18
1634.58
704.70
2582.55
905.79
843.43
610.77
413.58
386.40
371.50
512.74
769.35
953.94
605.90
366.23
360.96
806.84
495.42
719.09
953.64
931.60
440.19
364.53
345.91
254.99
404.98
256.51
641.59
771.60
768.55
491.56
405.00
380.24
353.60
379.79
332.47
338.90
327.17
454.01
552.29
709.36
1333.98
596.49
350.97
495.20
757.97
951.40
952.10
1039.17
947.51
856.23
785.05
859.35
742.79
1126.67
553.90
463.25
432.08
797.21
855.15
532.55
343.80
342.88
684.39
636.48
326.96
617.93
1002.53
842.91
687.45
833.20
664.53
394.75
263.90
308.36
237.34
521.37
532.86
536.88
1346.42
462.32
351.67
245.93
468.28
856.69
1223.48
948.26
547.26
363.76
535.93
665.27
518.68
810.30
485.67
685.20
553.00
401.63
305.46
411.43
393.25
376.75
259.94
363.98
379.07
309.48
439.96
446.01
349.50
340.61
393.24
430.28
484.17
515.77
422.26
402.20
398.13
319.21
1365.11
813.45
739.73
835.18
696.30
410.07
419.82
652.68
617.43
299.92
348.03
388.75
462.80
926.53
531.40
435.93
480.59
469.78
397.68
459.86
584.89
882.78
910.33
676.85
347.70
237.10
580.82
470.44
506.97
491.07
514.45
350.17
285.57
527.21
311.13
609.85
828.37
781.67
832.71
1094.64
912.12
860.90
533.72
327.40
399.23
865.00
974.88
408.85
497.50
838.37
1059.19
1970.37
813.43
575.14
406.11
413.51
468.25
590.17
279.83
296.97
625.17
590.12
543.70
579.72
345.80
452.32
681.82
1019.11
1069.53
802.48
536.85
257.77
345.63
553.08
535.49
385.47
1699.14
741.57
837.47
954.57
924.83
1013.66
708.62
585.98
687.51
1126.32
1384.57
1317.64
1099.26
668.15
287.97
1049.27
1374.57
1052.34
444.87
209.85
371.30
441.51
511.25
640.31
1712.86
397.20
435.54
409.86
366.34
438.79
484.16
917.29
1532.46
1607.48
1099.02
683.47
2771.64
901.70
1573.12
1566.08
804.04
293.73
337.88
299.21
316.94
340.99
311.34
347.10
1317.40
412.52
326.78
399.63
404.22
560.61
702.77
821.74
674.50
612.51
651.00
868.73
939.24
1166.46
343.30
1389.30
896.78
534.86
1282.74
1495.67
924.21
1134.03
1301.45
1215.64
894.02
620.77
358.22
323.12
328.92
322.55
527.53
700.68
553.68
399.03
319.22
366.54
351.69
1771.13
639.04
518.60
336.54
287.03
304.82
300.96
272.81
250.82
331.75
390.85
567.23
471.30
620.77
401.39
533.21
917.91
1227.27
1462.93
1607.96
1187.33
323.99
597.51
837.67
971.53
1352.49
940.31
586.46
261.89
380.70
505.28
694.82
855.59
850.89
810.53
597.94
607.43
3046.37
471.87
594.45
729.25
773.79
936.91
731.23
404.99
265.91
513.05
449.59
636.76
1258.64
1749.41
1113.84
1268.08
1692.57
1716.01
835.23
519.02
1357.57
1802.60
1784.81
1831.61
2305.08
478.87
522.98
712.31
876.58
1199.75
1028.67
421.36
689.51
1147.60
1258.54
701.85
426.25
574.77
920.95
1267.13
1127.81
857.33
538.13
396.57
477.90
321.69
456.53
461.78
1072.88
417.04
425.61
936.36
1127.20
819.94
581.33
928.39
984.10
1000.72
985.67
931.29
1663.14
426.57
286.40
474.07
352.85
377.76
326.70
444.16
356.66
556.19
741.08
832.95
638.42
718.86
432.88
389.04
703.34
1036.53
1141.40
851.05
908.31
763.90
353.92
308.61
371.17
1703.72
1187.71
1113.83
392.93
758.04
1361.10
1440.39
986.10
379.33
646.96
1067.03
1262.21
1541.82
1112.34
595.17
348.02
1174.80
1332.11
1119.61
727.40
354.46
384.50
436.05
1305.05
866.46
799.10
511.56
363.97
693.85
1460.61
1986.88
1115.71
648.47
705.52
479.90
3004.05
900.87
1027.57
719.11
430.11
338.02
490.15
568.30
720.96
735.08
539.51
452.44
858.62
1113.51
539.96
440.87
402.50
386.84
514.10
576.88
384.72
350.96
554.19
1381.89
1838.08
2321.63
919.72
511.90
315.65
347.95
328.19
531.85
1016.37
1151.58
737.38
254.84
383.18
1675.75
458.15
368.77
912.30
1293.11
603.07
535.09
665.78
652.30
596.07
891.98
988.17
917.21
780.26
337.71
570.39
344.65
449.83
591.63
637.08
620.67
826.45
807.95
906.22
1343.60
2277.56
1720.93
2353.55
2435.88
1163.32
746.95
641.35
394.86
1295.55
2350.69
2435.83
1451.81
636.73
698.96
587.88
301.27
325.78
584.72
534.32
417.21
514.73
1070.43
2187.54
2925.18
2367.57
1227.80
362.19
692.26
713.97
272.42
367.81
330.40
337.85
300.74
303.57
322.74
648.14
644.39
787.73
1240.97
1714.14
1912.87
1963.54
1534.74
686.46
837.62
1866.00
3790.22
954.85
1430.63
920.14
358.43
831.82
1127.04
895.91
630.32
998.41
774.38
518.42
3115.38
434.45
946.96
1206.77
578.25
464.71
752.52
522.14
520.01
557.37
545.67
771.31
886.86
1343.18
1164.69
440.24
471.50
290.52
368.90
367.89
347.52
632.64
1454.16
1870.48
1217.02
881.51
279.56
441.58
1010.74
1633.35
1228.77
821.29
389.10
765.37
976.07
286.48
402.32
1756.48
1069.65
601.51
1021.92
1624.10
1667.83
1095.67
267.64
424.73
1036.77
1756.01
1563.59
1134.14
649.24
662.15
1356.13
1447.71
461.05
585.18
668.40
1197.47
1384.79
826.46
1450.58
581.94
841.24
792.05
519.00
611.41
800.68
1608.17
1438.03
413.55
386.20
503.54
1937.82
693.94
458.71
414.61
890.07
644.45
582.94
1075.66
1175.82
665.62
351.73
545.39
3764.88
647.27
354.42
405.23
538.98
624.84
1118.20
1168.89
1060.25
846.99
610.28
331.65
3100.52
335.83
340.57
321.47
638.52
888.78
549.20
402.00
1044.38
1929.42
2032.27
1430.11
908.93
912.17
354.49
898.20
1056.08
1063.99
648.96
341.18
422.82
702.68
1370.94
2372.29
2568.26
713.99
1273.99
2759.84
2822.39
2164.49
1317.75
434.07
339.96
311.34
280.82
427.25
980.46
421.56
357.66
355.83
414.19
678.25
663.16
479.26
761.39
928.07
837.57
596.38
413.23
519.03
1342.70
2909.92
3639.74
3331.27
1662.82
323.90
425.81
1125.50
1393.19
915.22
1754.49
959.27
367.04
370.54
676.33
830.14
430.70
478.94
1425.02
1192.04
563.65
645.29
1796.82
1529.18
1765.98
1469.07
855.73
813.98
3048.00
3326.99
1895.77
1044.84
1228.68
728.41
419.58
276.97
299.07
711.30
840.84
825.87
1333.53
2046.82
2785.82
2140.90
1312.04
528.34
819.88
1902.65
1800.34
1864.36
2469.62
1712.68
801.85
318.16
454.28
896.51
1778.11
1709.46
726.02
331.91
599.54
1218.66
1492.94
2213.65
2952.83
2215.24
1191.16
729.29
3079.31
1938.03
777.42
395.24
683.50
491.66
424.11
946.62
1926.87
1664.51
929.27
385.76
2122.39
590.10
460.91
756.49
763.44
652.34
465.86
568.29
873.05
586.89
351.44
1933.22
1899.28
529.87
1229.91
1592.30
1416.13
612.63
417.02
724.30
1532.38
1230.62
652.07
527.22
1718.66
533.40
555.23
536.57
959.45
1590.77
931.54
451.50
435.05
547.36
430.85
937.63
1297.35
953.21
889.41
734.89
371.98
565.75
407.97
445.18
331.52
705.43
1076.25
2271.73
1422.52
772.71
2419.22
3749.00
4176.25
4126.41
3422.69
528.03
2178.44
3312.01
3010.00
2208.93
1404.93
539.98
1024.35
647.97
429.43
349.63
355.22
400.87
1087.51
1302.07
1035.91
362.64
697.85
713.02
602.73
874.43
981.13
795.18
481.95
365.83
467.23
1350.94
1614.88
1296.91
1390.27
601.33
592.74
993.59
1079.29
496.87
291.22
886.73
877.86
585.20
327.37
360.26
815.59
505.76
773.65
714.94
640.41
553.40
553.82
475.35
837.79
1509.80
1061.60
580.03
818.82
673.63
298.54
788.57
606.23
413.58
787.06
1645.46
1937.92
1712.06
1500.42
1323.19
1286.68
1381.06
1441.17
1265.93
1056.96
1664.73
1548.25
500.57
1869.41
3024.56
3700.04
3282.66
2373.46
849.67
357.54
442.32
346.78
1047.79
2186.25
1527.75
628.91
2856.29
1783.62
628.32
729.40
668.31
570.37
572.49
654.76
779.26
761.46
365.10
678.41
555.35
816.15
1848.66
1661.42
1699.11
479.61
308.39
912.55
992.73
582.93
779.06
1290.03
1083.81
799.97
1982.22
1953.81
1534.37
730.24
400.75
452.25
428.06
374.75
639.44
894.97
348.12
919.00
2126.56
2737.30
2573.14
2475.47
3042.40
2132.23
600.61
434.02
367.99
677.60
2239.70
1506.49
482.15
1240.12
2544.83
2351.24
2051.71
1544.15
448.44
1068.19
418.62
1340.81
468.14
790.36
820.62
552.92
391.37
380.08
730.94
998.77
1303.46
1036.21
851.85
796.26
764.13
904.86
1293.56
2530.31
2057.29
775.30
700.96
1673.10
1370.65
614.48
384.98
586.76
431.52
911.00
382.23
397.75
536.72
481.66
380.99
284.39
635.80
1095.02
420.42
581.79
874.79
2919.49
2477.38
1999.18
1134.93
666.95
1203.83
496.49
631.00
1071.87
1460.12
1002.12
388.59
881.59
315.65
454.35
322.55
384.59
1312.88
3090.44
3211.31
1128.01
295.73
440.25
584.40
1215.68
907.14
1155.88
1551.01
2675.23
2957.77
1596.73
547.78
448.18
652.15
354.61
2877.80
1061.54
2070.77
2612.35
2243.15
1124.94
334.61
513.51
791.55
410.77
575.15
1250.74
2884.09
2617.25
1182.55
365.01
412.09
373.92
459.12
987.52
971.87
727.24
464.17
1615.73
4185.61
1695.93
475.33
473.99
693.73
694.58
768.65
500.68
358.50
653.37
840.04
701.07
3186.63
4140.71
2208.57
662.84
378.03
432.64
976.25
584.20
322.06
514.29
746.00
1145.58
1118.95
768.94
568.46
694.49
617.30
559.32
1109.39
1987.81
615.06
508.55
1195.76
1250.40
1324.46
1285.81
2151.22
1719.18
518.93
365.25
872.47
1754.16
1549.54
549.69
301.87
427.59
776.92
706.61
479.47
438.88
372.78
557.32
768.41
596.61
495.73
320.03
338.80
663.53
743.56
713.44
755.26
1629.23
1411.79
802.20
300.30
824.11
439.29
2168.15
2669.39
3054.03
1765.37
432.76
1421.72
1091.20
497.43
626.96
1455.73
1501.38
581.50
612.03
1443.01
1999.81
2745.97
1489.85
491.22
701.56
756.08
609.94
321.04
363.73
487.63
801.63
388.04
1938.77
2626.08
1465.51
833.88
801.20
933.49
608.45
411.30
1192.49
978.46
590.34
332.11
599.77
2122.75
1447.94
867.14
826.36
833.49
471.17
492.45
786.10
493.08
757.11
1157.95
1159.35
1271.34
629.12
988.52
729.68
447.49
691.49
1182.98
1105.03
448.20
454.32
715.10
640.38
1717.87
689.89
671.72
731.95
1003.18
1116.71
395.37
2116.41
3166.57
2414.60
2308.80
1646.47
918.35
929.42
1578.26
1382.86
442.84
617.83
372.03
659.74
572.81
894.71
984.01
1108.31
1664.45
895.89
342.88
807.07
468.77
950.33
558.96
540.21
559.17
571.86
535.43
489.41
2357.22
665.44
598.15
295.42
386.19
517.24
648.96
997.58
1198.56
1082.21
580.86
463.20
2675.03
1404.68
793.11
444.70
500.94
1002.19
2200.09
2950.94
2694.81
1672.40
1501.00
421.74
991.24
1522.47
2221.25
2236.63
1421.34
445.51
527.26
448.09
810.09
993.88
765.84
625.84
906.43
1181.19
1267.97
1325.33
734.08
826.01
1018.72
1211.97
935.67
1057.69
3021.38
3412.84
1354.23
493.74
391.70
409.64
502.81
287.64
416.03
628.57
357.62
388.47
353.50
533.33
1181.80
1722.42
1670.05
907.80
415.25
1619.93
3711.35
3190.90
472.40
1429.95
1062.05
1431.51
1410.00
2656.94
1816.62
915.83
468.04
524.49
378.92
444.79
385.68
449.66
630.05
1095.51
440.59
1381.06
1423.11
1324.55
1575.00
1017.06
484.94
336.75
418.96
621.31
2736.13
965.08
535.88
1393.65
2321.06
2192.84
1443.12
559.01
447.74
366.54
480.04
1095.20
2949.85
2705.04
761.85
2178.29
3625.28
2233.83
1291.54
1051.95
543.15
1620.00
1875.05
1270.71
611.85
389.50
401.92
1413.83
3098.40
2884.60
1034.20
414.66
2235.11
3468.92
3366.66
2653.70
1353.85
473.76
501.95
366.27
408.35
776.56
416.79
423.85
640.87
475.89
387.09
1474.38
2674.61
1492.98
412.73
603.84
1808.90
1679.32
2034.23
1333.52
589.47
1517.84
2651.48
2144.33
1869.35
1469.94
798.10
385.45
500.12
327.15
546.79
1348.32
1871.93
697.08
1219.90
2212.64
1192.30
709.06
674.97
334.37
751.62
1453.32
2080.65
2239.01
1155.25
3123.80
865.27
451.42
668.29
501.98
419.71
586.93
481.58
474.58
320.38
1080.60
873.75
969.35
1037.89
558.11
755.04
673.13
366.40
471.35
670.39
807.76
791.07
1962.10
3582.36
3255.55
1703.62
425.93
683.54
1737.88
1776.52
2194.08
1777.55
560.47
424.26
566.57
545.80
1145.91
561.59
393.78
608.55
1506.00
1733.80
556.14
2532.93
3705.95
2126.32
403.84
1404.87
3583.38
4081.25
4209.30
3336.69
933.07
1257.01
2702.54
2556.07
3833.74
2537.36
405.35
1161.51
759.88
345.90
972.73
1212.09
634.45
485.34
950.36
1002.30
765.84
399.90
657.49
623.96
451.38
365.91
296.96
327.73
445.55
718.45
646.06
475.88
657.25
579.99
450.70
2479.29
1142.91
1127.54
760.68
1082.03
1330.87
800.09
707.17
1329.39
1241.98
690.39
360.95
917.19
1482.82
1704.56
1232.43
1144.06
2166.13
2627.78
1494.84
809.31
2424.67
2118.29
3357.72
1079.69
490.50
867.70
380.61
1454.21
1745.71
1351.60
1157.34
543.50
300.15
2586.91
737.12
957.74
499.98
1351.02
2711.52
3223.20
2624.10
941.66
750.67
2168.04
2524.30
1403.05
629.71
2002.49
3437.32
2468.06
1013.63
346.64
403.90
383.38
419.90
1010.05
2813.12
3282.24
2283.37
951.12
412.14
1366.15
3028.05
3280.36
2200.13
667.15
971.24
1883.43
2450.41
2127.26
773.82
1225.75
1044.73
505.96
612.35
711.87
483.01
335.89
402.79
1124.93
3175.16
3088.69
1198.93
518.49
397.13
296.88
832.29
465.07
1815.94
2584.64
2053.67
1110.97
390.10
410.19
1005.60
2398.91
2945.09
2488.10
1395.51
419.40
284.66
1053.76
1908.40
2607.40
1611.20
496.31
611.20
678.09
736.71
670.05
573.49
401.51
1539.17
1876.64
1825.37
2416.15
2453.24
1008.35
1160.60
2757.60
1993.27
393.57
473.13
360.96
554.69
739.59
1718.79
584.71
975.09
1131.89
513.98
640.03
902.73
1650.71
2377.88
1922.43
751.05
3490.72
3465.52
1456.38
1203.06
404.33
1642.23
2111.59
2684.19
3329.71
4182.59
4114.03
1811.86
2315.83
4154.16
4206.24
3126.47
1378.58
955.47
687.86
423.89
370.05
577.43
601.07
2496.65
1383.27
927.94
615.40
370.93
775.94
444.92
418.95
827.40
895.87
575.50
775.93
1109.10
888.39
2362.94
2466.96
1049.14
718.18
1108.15
510.03
1062.22
1450.31
637.92
921.03
2508.08
607.11
555.30
613.46
967.63
2182.57
2445.35
1835.57
825.73
639.88
378.92
426.30
1494.58
444.17
342.43
1069.21
1763.90
1385.80
806.94
464.26
1094.54
1344.87
770.83
1284.04
1986.80
356.85
452.70
263.85
502.04
276.94
1371.15
2572.21
2525.71
1459.96
693.37
2742.81
2700.42
2343.75
2181.28
1720.78
1194.80
824.49
1292.86
2744.48
2898.70
2194.61
1283.28
540.18
2139.76
4217.06
3435.25
1486.01
481.89
306.23
990.00
932.90
1060.29
1750.41
1527.88
703.92
691.89
2124.29
2954.37
2846.21
1797.54
699.18
352.52
355.86
421.94
2300.74
687.95
844.66
896.49
930.36
842.36
576.23
462.25
408.55
658.65
1403.28
2307.83
1376.04
557.92
602.84
412.15
1277.79
1330.73
1218.01
592.60
1377.95
1897.93
2675.54
2328.86
1478.68
940.77
1435.61
1526.59
1011.20
911.53
461.07
803.53
1069.77
1383.57
747.43
968.62
1041.03
974.87
733.49
443.32
1016.61
1908.47
2977.02
1141.15
1301.36
3340.16
3590.39
2433.07
514.74
1866.25
2427.58
2068.89
680.41
991.36
2043.26
2571.47
1773.75
894.20
3010.41
400.06
401.99
351.05
742.65
844.11
375.99
884.50
1214.81
625.40
344.72
1029.49
2692.29
3034.80
1527.84
463.44
970.26
934.09
1330.44
2053.38
1787.97
1063.10
448.80
1078.67
1155.28
1376.23
3250.10
4091.69
2353.47
500.48
667.82
376.84
2352.68
4097.82
2802.57
1753.36
421.06
561.25
355.30
532.81
490.40
2552.62
2475.88
1184.62
408.73
1411.83
2206.04
1400.25
797.03
525.20
319.30
651.31
514.19
446.41
534.79
474.33
506.85
702.28
952.29
1117.84
379.34
583.75
913.56
846.22
978.69
2182.48
2214.47
1259.31
994.54
2497.60
1285.49
1099.81
1373.05
1997.72
1670.83
747.32
560.02
702.83
1139.30
438.17
332.92
432.82
1871.20
452.83
879.17
1279.59
1131.21
340.74
515.32
794.55
637.72
488.86
783.13
1089.32
2608.35
1873.39
1124.84
521.82
405.14
1419.39
2062.67
1906.17
959.00
627.17
1294.73
789.63
386.75
774.26
1325.96
1795.60
1758.51
1424.19
800.23
324.87
455.03
747.49
1363.86
1822.38
1538.25
760.80
354.98
442.91
577.96
699.12
962.27
1669.14
2228.12
1340.00
431.69
4181.66
1919.33
510.85
919.40
1304.82
1094.02
1028.44
880.07
641.65
640.01
1150.30
1840.03
1417.01
950.17
2135.85
3399.07
1618.31
874.73
1086.36
936.05
581.91
382.39
690.99
3256.80
631.44
393.99
354.56
600.84
805.80
559.49
369.93
298.92
650.87
1397.55
1709.63
1558.61
777.78
623.00
817.13
808.32
1268.94
3026.45
4159.00
3266.54
1363.71
483.92
349.57
1855.91
1392.52
2199.56
1506.13
530.89
421.03
1543.04
2693.52
1636.59
369.69
487.10
926.36
1388.63
1096.78
621.79
531.18
1055.14
468.74
711.43
1468.95
971.15
1456.48
1225.15
570.29
722.92
1923.52
2182.14
3219.40
2882.76
1432.99
390.27
479.42
680.18
906.53
628.71
1524.30
685.50
1522.56
1439.82
951.84
495.61
379.64
409.37
452.72
432.12
988.53
1176.50
2039.03
362.27
1386.51
1903.63
2306.45
1900.18
557.14
586.30
634.44
577.62
453.99
390.47
567.13
629.61
603.35
371.46
448.60
700.14
608.36
635.74
418.87
315.01
766.31
2021.37
1611.45
1535.27
1997.81
1423.59
703.13
341.33
822.11
1037.54
576.93
2786.35
3861.64
2119.53
1382.09
2105.38
829.19
1105.33
2821.27
3352.29
914.47
1208.02
1539.18
648.57
469.21
840.95
323.97
341.09
610.50
766.85
705.73
802.45
798.76
828.32
276.17
503.16
751.96
839.23
1147.98
815.60
882.86
541.57
325.48
411.02
550.63
437.68
377.32
833.99
1062.88
809.65
2051.12
919.49
1528.17
1480.19
627.54
284.17
1305.32
2798.95
2635.21
2241.97
895.61
494.20
1281.18
408.58
480.83
350.77
456.31
310.44
408.94
729.60
650.76
293.46
630.15
1061.45
1684.50
488.15
413.50
353.98
410.00
666.31
353.11
470.88
1540.61
2309.76
1985.84
1928.61
2135.96
423.74
1349.86
1635.07
1229.52
521.02
363.53
289.27
462.61
460.43
672.04
1034.26
1435.53
671.65
409.01
366.59
294.19
587.87
427.33
793.71
822.53
741.13
581.93
812.78
2049.50
1726.59
2324.46
2335.85
1468.53
555.25
971.99
1230.52
418.72
1088.05
1596.35
1203.21
416.56
640.35
532.70
826.21
1489.66
1961.46
1718.02
558.34
1332.96
2097.00
645.55
1345.57
322.99
782.44
1513.86
1524.34
2506.85
3034.80
1979.08
815.12
2279.65
3151.57
4131.72
4172.53
3588.41
2125.56
482.86
1496.04
1872.74
1034.86
662.98
837.82
1189.63
1300.94
1216.25
876.69
608.60
387.10
363.63
563.23
468.77
313.75
479.80
953.19
970.94
362.41
1099.71
737.70
730.89
1054.69
1611.79
2183.80
2718.63
3121.51
3129.17
1610.88
774.88
3019.36
1733.87
804.77
373.52
2473.74
4167.01
4178.16
3657.76
2194.43
491.45
1022.18
1613.53
1084.97
1125.01
1845.47
2346.27
2388.22
2420.72
4153.30
3483.19
1383.33
393.94
550.37
613.32
538.80
657.40
708.78
675.78
459.78
590.56
285.42
1047.25
1148.20
615.97
306.64
482.27
731.07
1003.40
946.00
608.72
715.43
789.69
914.71
1281.54
1389.75
1876.30
1493.31
1055.22
820.09
1368.57
2028.00
1208.80
717.98
2182.39
2808.55
1406.07
320.23
402.63
518.90
425.16
1021.79
2018.72
2860.20
2815.52
2254.26
1588.34
549.62
2185.17
4115.60
3198.61
655.42
3323.83
4069.11
2968.00
1386.73
782.75
989.18
1965.43
2309.70
2178.59
1572.83
568.63
441.10
621.00
401.05
788.99
1037.27
1069.18
1055.07
309.41
486.12
707.34
2025.30
345.27
348.98
458.56
575.22
550.54
1087.05
1926.63
1496.73
1124.22
1056.16
714.05
1609.22
664.64
630.34
685.76
496.14
444.12
423.08
1946.19
3160.84
2368.45
817.11
370.11
875.11
366.66
364.63
575.81
314.92
607.87
346.03
340.52
1022.77
1697.23
1234.22
441.58
745.16
822.60
911.61
722.03
492.83
2034.70
1299.85
381.42
538.45
959.78
1383.44
2205.74
1268.14
499.26
825.74
1888.63
2488.93
1861.30
504.48
448.88
429.52
291.02
317.78
555.66
2255.38
497.61
837.37
883.04
678.06
543.05
583.84
752.00
965.28
1070.17
768.84
347.77
296.46
656.11
776.03
954.07
1196.14
2394.10
2361.06
736.70
1388.82
1469.82
801.87
837.36
538.37
599.37
1289.73
1825.32
1678.00
505.33
1163.21
2515.81
2372.71
1050.98
529.77
1160.40
1291.90
1132.31
1391.80
1906.97
2045.87
1052.93
928.73
886.72
668.81
335.19
1082.37
4135.34
2452.66
2077.41
1410.85
595.73
523.59
463.89
275.76
592.42
1002.98
1039.72
1302.51
1666.67
722.77
421.95
284.47
575.97
794.89
538.89
702.62
1283.70
455.48
1143.39
1261.02
1782.00
849.92
399.30
279.29
723.24
963.16
767.12
341.87
290.34
269.52
339.52
688.72
1513.87
739.13
1439.92
1646.90
1222.52
1336.08
1406.78
832.31
463.38
329.45
775.63
1351.49
1370.62
440.76
521.88
676.48
655.10
295.81
1010.55
753.14
445.39
1305.64
2078.26
1546.62
1462.61
656.05
448.15
589.80
1170.43
803.45
716.66
1660.04
1696.27
745.11
728.72
2489.83
3811.11
3233.32
2351.54
1210.24
1403.92
4195.71
4071.41
859.94
1213.62
1582.20
1856.96
2158.53
786.31
289.41
492.60
712.59
1130.18
1309.34
865.50
297.44
1228.01
2277.79
4117.43
3110.88
2723.00
2311.97
1241.39
277.69
376.86
537.23
699.01
388.46
341.51
409.04
1296.97
1174.20
958.73
452.38
825.60
1235.97
1489.51
1532.91
938.11
495.62
279.04
422.28
361.72
438.83
402.26
393.36
528.48
574.24
704.20
761.74
1380.05
1077.84
312.46
290.43
824.58
472.42
830.01
926.11
771.11
759.89
1378.47
1637.24
1122.67
899.08
1022.01
388.39
1103.28
568.76
315.31
977.72
615.64
370.54
348.01
735.10
1708.13
1888.49
1930.85
1009.74
1364.33
430.50
625.06
724.53
622.81
815.13
1353.18
2840.18
3307.61
3126.84
2814.17
2518.88
1215.09
1758.39
3015.91
2542.69
1526.70
427.00
1047.53
600.06
654.70
550.55
496.10
1525.02
275.46
319.88
283.35
319.73
1695.91
2698.75
2164.35
426.51
1827.33
2287.01
1762.58
1439.34
1011.52
1689.50
1790.17
608.01
384.34
310.84
506.78
1451.03
1872.31
1472.09
2784.66
454.26
270.68
1064.29
1493.85
1833.86
1847.18
1185.89
365.32
275.88
628.06
1392.03
1787.49
1183.60
685.78
284.43
533.82
275.62
492.51
628.78
945.83
818.20
301.34
405.47
521.70
546.61
460.44
410.74
477.78
1014.38
2105.77
2349.56
2455.84
1686.38
804.78
276.64
673.18
1183.74
864.87
292.17
300.66
1422.49
3142.06
3517.91
2774.93
1039.32
766.80
3231.30
1630.69
618.10
511.05
316.41
386.19
377.52
1131.14
1261.97
573.38
246.77
346.97
1884.54
862.98
763.25
260.00
243.84
336.23
722.79
1411.62
651.01
468.40
913.42
566.58
204.48
497.73
498.35
495.43
603.38
832.52
979.35
806.58
564.83
457.90
739.19
831.73
483.00
1773.60
2397.44
2904.06
2631.59
1659.12
381.25
1196.34
1440.66
1450.53
749.93
377.78
909.91
1134.57
1144.11
1245.65
449.08
999.58
686.45
480.78
333.87
330.11
652.84
307.35
649.19
1194.54
1590.02
1921.62
1757.61
673.42
627.64
821.21
746.84
1071.34
1412.76
1222.36
698.61
476.22
306.89
392.51
526.37
1039.71
1327.18
803.48
588.78
812.85
1665.44
1849.65
2252.75
614.88
227.26
285.49
491.22
893.76
390.86
262.43
434.71
495.96
951.32
1575.48
1391.65
839.23
463.56
416.84
692.81
571.13
235.06
487.20
1042.22
1112.12
935.45
500.54
1142.07
1698.43
1396.67
472.80
1210.87
1394.48
1176.21
653.24
477.87
581.55
938.94
1813.58
2623.20
1590.23
476.11
1914.82
3420.64
3835.98
2925.88
1514.06
330.54
890.11
1264.02
913.51
569.00
1016.17
1946.54
1770.55
1071.62
849.62
684.38
480.89
316.16
422.08
620.49
775.18
1225.64
751.43
272.89
268.39
293.49
265.20
233.90
600.08
818.15
796.93
371.71
446.16
1556.24
342.87
246.64
623.41
662.09
290.69
938.50
1002.09
409.24
1392.64
1723.37
1809.74
2771.80
587.66
609.16
743.01
1475.10
3532.51
4144.67
1850.43
1093.90
3580.55
3636.82
1563.63
417.27
289.36
291.54
444.25
626.28
655.35
375.15
418.29
281.29
696.78
644.71
311.83
826.42
504.26
620.28
1454.52
1869.90
1072.45
343.77
762.57
726.79
893.03
990.92
1068.30
909.97
403.99
352.19
578.59
521.42
730.07
743.05
900.31
488.72
417.17
288.90
311.20
1391.98
844.16
1870.61
2854.98
2779.45
2673.67
2307.80
742.67
1933.88
4166.15
4099.15
2242.95
1330.29
2705.62
2264.17
977.82
674.66
493.98
321.56
701.14
679.22
935.05
512.75
1912.67
703.16
307.88
401.75
673.21
1125.78
1596.66
1024.67
497.33
897.17
1536.77
1283.40
2003.68
365.00
478.53
1297.04
2238.42
2034.57
1386.59
1196.63
1171.10
1371.12
1512.50
850.54
1587.22
2050.77
735.52
1451.74
3546.35
4117.80
2858.23
1903.99
1445.38
547.00
333.79
382.06
285.35
517.18
1042.65
1937.75
2310.82
1755.44
1841.65
2379.78
1836.00
1024.29
1081.61
694.30
1564.52
853.09
574.75
1233.94
1221.49
389.46
487.59
1768.32
2029.63
2998.07
566.07
1171.17
1157.67
794.88
669.23
1075.89
1692.32
1552.60
893.87
315.34
965.24
2118.43
1877.28
1387.91
339.34
245.54
511.12
744.97
590.52
1674.99
1576.30
594.04
688.24
857.65
930.03
676.58
455.80
666.28
980.28
649.43
496.43
791.71
1673.00
1637.76
775.24
1058.90
314.79
552.34
675.48
499.61
460.03
703.04
855.18
680.63
701.44
669.31
321.27
392.75
839.93
479.80
473.65
436.74
299.73
493.82
387.92
602.08
564.49
397.33
589.92
742.43
3088.67
943.09
712.59
254.39
1063.27
1220.05
1154.64
1351.82
1239.95
330.24
756.50
779.33
1572.61
1989.14
1531.59
748.73
531.65
555.24
754.37
691.52
411.26
204.20
1125.48
1151.36
1127.14
2442.46
3858.97
3590.56
1992.62
375.55
844.17
1934.68
2345.23
1666.95
719.29
1380.61
284.31
243.84
315.63
506.50
959.14
567.93
943.36
622.82
335.82
393.24
310.26
834.53
1571.52
1515.68
1579.82
1965.39
2021.24
1784.65
1499.38
2237.06
2714.69
1665.11
1075.16
476.45
2206.13
2476.14
2143.30
1837.47
581.88
414.44
444.71
346.33
1297.21
2161.37
2204.51
589.61
383.87
751.21
906.59
421.01
384.91
381.31
563.41
364.18
345.85
671.44
3094.57
338.14
246.00
908.67
1403.72
832.34
798.77
628.39
1102.40
1737.25
1533.44
1369.98
2690.62
852.48
436.86
792.76
600.57
788.98
851.79
300.07
683.62
775.01
1129.40
1722.01
3119.22
517.25
1076.57
1806.46
2260.63
2415.73
1673.94
380.14
1682.86
1691.55
445.63
392.64
308.96
370.62
367.99
274.40
787.10
1179.07
863.53
486.09
1328.06
932.74
525.52
804.30
698.67
807.00
455.77
1162.51
886.91
436.03
737.65
407.25
297.52
1003.22
2224.13
2428.95
2993.37
3087.27
2268.84
565.96
862.15
996.67
334.09
784.88
663.15
306.60
689.57
1111.91
2844.12
1536.44
1412.80
638.17
523.99
941.28
509.69
308.06
742.86
1054.73
783.99
253.88
1122.56
1341.80
2221.91
2800.90
2301.72
924.13
565.97
2925.45
3414.62
2760.23
1430.51
2462.05
1382.06
969.12
1132.98
1752.03
1662.26
1332.87
1027.45
978.30
691.78
296.46
3553.15
640.54
294.09
459.58
532.92
924.87
1235.05
1470.86
1775.89
2094.44
1651.63
672.45
1585.15
513.78
746.82
758.66
678.75
341.44
720.62
1169.99
1327.77
439.73
330.24
246.88
1852.18
861.79
464.56
271.89
286.12
332.37
584.52
510.45
249.23
419.32
1017.98
317.48
814.40
1283.85
1516.49
1160.39
772.68
472.57
377.47
442.36
391.51
512.18
544.96
843.59
1098.36
1140.26
419.51
1250.40
918.23
627.67
2005.50
3236.62
3836.30
3461.22
2161.58
504.09
1677.13
848.87
629.10
1328.09
1146.19
367.30
579.39
664.41
469.83
402.99
379.42
375.97
1679.51
372.46
361.04
514.33
331.30
637.59
1429.94
1049.66
930.06
2335.32
2560.34
1774.71
1846.41
3441.07
3503.56
2405.22
1337.67
1084.99
592.08
334.33
413.53
531.36
675.12
1390.80
706.90
603.07
652.69
897.98
1414.28
1006.32
586.85
641.20
781.38
555.45
411.23
483.17
1000.39
642.75
293.62
437.03
1044.94
1254.58
1071.05
1159.47
1284.52
904.48
894.27
1389.46
756.01
543.40
534.88
333.36
866.80
1913.83
1613.19
1216.05
327.98
460.77
720.52
1257.16
510.88
459.60
384.54
329.02
567.99
668.72
542.93
365.61
765.48
1258.84
1409.91
667.19
616.57
402.66
418.39
374.19
342.31
311.70
401.23
251.87
254.29
1170.03
2256.79
1878.64
1448.33
424.38
356.91
451.10
617.61
723.89
298.21
315.27
728.53
573.47
371.88
261.42
3115.15
372.91
399.20
233.96
433.86
966.05
1376.37
1211.52
716.08
312.29
536.24
1010.60
309.16
1344.05
2330.69
1849.17
713.00
583.64
1615.85
2163.03
1650.65
758.68
604.25
1372.53
1749.87
1603.23
1772.63
2019.92
1481.61
851.71
464.65
1155.77
1106.52
489.51
470.29
1681.98
285.48
986.69
1728.08
1232.64
447.72
969.20
600.61
448.23
418.49
900.98
1217.30
1822.59
588.20
434.86
862.06
377.32
516.69
792.42
817.76
590.76
605.65
688.04
724.80
981.60
1929.62
1718.04
692.69
712.92
1054.18
372.42
1389.12
1857.29
1101.08
581.52
365.84
1691.20
551.84
1254.69
2698.58
3472.60
2795.10
1417.25
492.96
1320.14
1017.25
906.27
1251.06
896.73
494.67
285.90
529.80
902.72
1346.41
718.72
504.41
680.95
507.18
473.51
293.48
929.33
343.09
267.29
379.36
512.72
530.07
633.47
551.53
351.22
517.23
593.84
727.70
536.00
592.70
489.92
471.42
285.39
359.59
484.66
816.86
847.36
560.68
730.13
1283.58
1092.30
1335.55
382.69
611.37
781.38
541.82
664.63
545.92
505.52
406.49
533.11
623.36
769.16
748.38
1369.72
1759.53
1602.96
1121.16
652.08
336.07
1861.25
1580.87
473.14
1113.50
997.52
2047.05
420.43
531.47
1285.49
2236.34
2182.68
1014.66
1186.57
2463.78
2326.22
1936.74
1412.58
658.08
341.82
660.97
976.39
1366.83
1169.53
891.44
752.41
735.03
295.09
977.70
2234.22
343.12
354.74
426.45
386.71
410.67
919.62
1744.66
1717.92
1687.97
1649.25
1653.23
1579.38
437.59
1083.36
1299.61
555.92
573.67
762.88
651.70
711.25
1019.99
293.92
491.29
870.63
717.74
835.07
585.10
429.47
445.35
744.07
746.74
455.41
550.42
839.92
1116.89
1129.15
901.60
337.21
338.56
297.20
287.09
650.24
636.79
313.55
292.52
322.14
376.96
897.80
2146.30
2019.40
2021.25
1422.71
620.86
319.35
338.52
331.91
568.65
824.72
536.92
376.88
2169.88
1842.96
1544.97
529.84
813.50
2213.76
2856.40
2249.33
978.13
1082.66
2545.01
2248.88
1555.71
1261.95
1254.21
1310.89
367.46
376.70
502.69
733.98
1201.07
1152.09
1558.67
2365.84
1920.41
793.05
610.31
958.18
1498.38
1681.25
1124.51
863.27
376.35
1126.16
4214.66
1562.64
901.18
346.53
710.80
1517.96
1007.93
935.92
2905.69
2778.28
1460.95
291.21
961.95
435.71
607.28
611.06
790.04
969.58
597.57
498.78
903.84
1358.55
979.92
518.19
2040.41
948.38
908.15
481.21
352.68
282.20
302.15
275.90
351.05
384.22
487.82
312.51
289.48
571.33
483.86
422.35
381.43
457.12
777.19
854.24
963.25
861.87
670.74
378.80
315.33
374.46
520.12
315.83
583.34
543.02
491.13
448.88
353.21
421.37
354.56
755.00
788.35
820.94
2820.09
866.89
1104.97
1085.42
789.78
408.57
257.74
335.43
297.43
454.73
708.87
395.46
362.92
362.05
977.65
399.34
708.89
1088.70
1260.21
394.74
693.31
586.93
426.21
1021.61
800.67
388.34
493.22
342.96
540.98
769.20
1697.24
2220.60
1160.79
816.33
938.04
666.56
1045.35
725.07
963.19
1101.42
367.06
417.17
372.08
324.56
384.57
496.16
387.46
193.55
392.68
1129.61
287.29
375.88
576.45
776.41
571.48
492.47
651.44
1028.40
1322.77
793.61
636.09
2056.73
1899.58
1313.43
722.85
368.16
1771.75
2995.27
2846.87
1359.09
416.99
271.21
920.87
2237.16
2616.12
2680.46
1719.46
602.51
438.74
684.17
631.08
474.52
751.22
1457.02
897.53
485.96
389.71
354.75
359.09
244.29
447.72
469.82
424.51
1279.01
1426.80
1222.53
352.36
437.26
226.19
385.99
586.55
672.40
1126.49
1094.89
1231.72
873.78
587.36
509.38
529.61
568.62
470.55
757.10
1083.88
1010.98
809.36
552.96
339.37
372.80
417.99
545.96
460.25
2719.14
1157.92
873.01
686.59
656.44
548.94
498.01
438.90
261.87
595.70
1421.89
1816.34
1693.79
919.37
382.37
548.60
837.28
1382.94
1590.06
1364.25
975.63
447.78
673.25
770.27
1923.43
430.16
350.39
506.72
395.84
985.01
2559.05
2163.64
604.67
457.39
513.27
501.58
2970.36
580.09
783.28
1258.80
1174.28
1119.59
1100.42
1275.78
1272.98
1208.62
848.48
740.32
627.34
364.25
438.22
429.10
768.21
896.20
447.44
355.04
344.63
394.63
528.79
437.35
2955.18
470.52
669.44
404.04
573.00
667.16
293.97
530.84
321.83
552.67
331.54
726.02
1037.08
1468.44
906.88
666.42
664.39
778.18
1021.23
694.42
325.54
505.75
559.93
649.42
1124.31
1800.07
253.63
268.58
434.59
343.49
