717.01
565.69
575.26
191.93
288.13
391.49
490.43
332.88
306.31
253.24
154.85
241.77
395.08
1381.27
470.93
346.56
336.09
435.14
265.94
355.15
294.78
489.88
337.97
283.23
403.77
498.78
591.20
738.33
507.72
436.91
443.67
628.82
791.62
845.54
538.81
314.93
252.68
369.26
392.75
309.08
426.57
321.53
412.72
672.43
789.30
1386.97
1999.38
2392.06
1728.43
491.90
1067.22
1404.04
883.78
831.79
1564.67
1717.94
579.61
500.56
869.06
700.06
671.23
439.46
1362.06
193.56
181.09
193.78
452.30
523.92
433.48
477.40
424.40
259.09
254.36
263.99
290.96
697.11
676.20
723.17
753.07
750.76
729.82
361.48
197.28
1050.66
1202.17
840.21
383.91
1244.68
792.37
1050.15
1188.26
791.29
238.03
380.12
807.39
381.60
321.38
561.44
921.80
1543.69
656.84
666.80
580.34
742.52
956.61
693.64
420.63
254.31
229.00
320.59
401.64
2644.03
391.95
247.16
87.81
568.15
805.95
285.28
464.15
358.52
321.22
289.76
512.79
589.97
1099.57
328.71
329.80
395.23
772.12
1154.21
1398.76
799.47
257.43
441.93
1189.25
1181.27
1139.64
536.65
312.78
294.19
376.68
396.87
371.69
394.86
458.50
362.87
538.35
671.88
1524.33
883.81
885.11
712.65
597.26
669.47
326.89
196.52
212.88
491.42
686.09
394.37
1006.11
267.53
408.94
506.36
545.94
760.35
626.71
524.66
515.28
541.32
516.12
438.57
552.93
893.77
643.43
200.80
423.56
864.33
537.36
473.33
405.96
482.99
346.65
331.76
312.00
291.31
415.67
361.08
437.73
363.69
333.09
455.05
435.63
596.04
673.76
742.83
463.65
377.92
547.59
404.84
351.34
1120.45
1542.18
1025.05
408.02
318.92
261.53
471.62
629.19
346.19
329.26
726.39
968.06
947.30
444.03
546.42
861.51
549.57
307.92
409.16
376.46
495.63
364.01
1449.46
313.47
867.32
627.07
378.41
588.95
708.67
621.31
355.88
354.61
504.75
657.09
781.42
1105.33
695.99
312.69
370.90
905.52
1061.06
1097.22
1125.88
1093.21
585.11
452.66
1116.59
1027.43
548.05
293.88
1083.20
1400.42
1458.43
1054.17
548.35
223.61
175.11
315.54
661.28
295.46
161.01
173.47
385.84
369.01
410.49
444.34
412.10
427.77
504.10
361.23
430.26
557.17
460.39
494.86
634.27
612.08
694.36
905.88
1195.16
1380.13
1121.71
479.21
232.68
418.11
667.10
1148.57
918.44
211.53
305.30
494.19
514.22
533.53
515.03
431.45
665.36
1568.76
490.09
497.52
419.43
357.78
206.14
396.66
418.43
354.51
225.32
320.80
335.07
473.30
829.45
910.00
448.85
392.78
655.26
1004.73
302.38
183.21
364.47
360.06
527.46
503.31
634.77
479.13
267.54
304.57
238.47
540.46
525.60
333.08
270.92
268.77
215.67
391.51
366.27
491.49
438.31
614.67
517.49
242.90
562.85
367.47
717.62
991.08
1330.65
1224.52
784.92
1222.44
260.17
507.58
593.08
512.48
264.02
586.44
490.20
896.22
1092.02
1548.84
2086.93
2609.20
2022.20
590.34
830.82
1636.50
1682.99
1240.00
1015.20
706.83
428.64
619.63
618.06
737.21
450.31
177.89
304.37
444.13
378.91
342.10
597.61
685.26
534.95
366.35
406.45
2503.48
528.42
550.52
754.08
864.37
551.75
178.08
184.86
569.25
331.88
256.77
462.99
412.45
780.72
510.55
231.94
293.07
228.41
396.64
423.20
261.49
333.04
243.57
498.78
787.69
773.38
765.30
468.79
351.74
812.20
1381.34
1890.99
2238.52
1621.23
367.03
604.98
1362.81
1555.29
1261.26
1062.11
1029.47
618.02
254.23
314.10
231.20
411.73
313.95
371.69
322.88
2473.45
627.94
1106.19
1328.95
1364.85
958.92
840.14
707.42
261.41
644.94
1634.91
2121.40
1290.59
222.97
805.84
751.85
820.22
599.63
569.24
492.32
579.54
546.22
463.38
407.62
636.09
214.39
456.08
742.60
605.70
281.04
452.28
656.31
500.23
338.38
515.32
278.27
666.09
642.62
296.88
274.43
478.25
974.91
779.48
530.03
437.81
385.20
407.01
239.17
373.26
2502.00
330.03
482.23
264.65
221.09
366.83
337.79
415.28
806.59
973.94
550.16
561.77
537.21
896.10
406.96
150.22
344.90
286.79
451.72
670.36
505.71
395.77
219.98
360.62
386.33
249.54
408.08
283.60
277.75
354.95
258.63
378.78
422.63
522.85
606.89
620.77
588.48
568.03
401.41
283.88
401.93
236.39
230.53
451.80
274.57
656.20
670.05
522.87
341.90
220.01
297.96
2496.09
361.88
340.98
363.42
331.05
436.30
530.94
614.67
780.13
702.89
605.94
354.75
433.03
824.29
113.76
318.28
328.24
266.07
309.27
382.24
384.40
277.45
214.19
253.20
355.60
413.33
689.87
523.58
447.56
278.56
389.02
392.62
430.73
500.56
373.54
514.31
675.77
1244.36
832.11
403.62
412.83
1433.63
1110.09
445.54
497.62
519.90
135.90
293.89
263.64
408.21
568.21
773.26
561.86
436.88
536.66
343.19
206.25
287.55
320.07
357.83
318.55
282.44
366.96
2532.18
595.17
869.55
803.17
611.61
562.43
264.39
355.66
342.57
640.48
613.14
695.06
597.74
878.77
557.45
430.62
240.67
238.06
934.02
1524.83
1277.94
372.49
566.54
221.02
210.76
581.30
305.45
482.21
714.22
518.64
495.82
201.54
164.22
493.02
396.74
526.00
533.30
404.29
684.94
719.35
702.94
467.40
324.35
913.07
694.31
397.71
225.23
383.60
492.29
298.60
236.26
521.46
456.23
702.82
846.02
579.20
320.47
167.26
295.31
250.57
566.19
1376.39
2116.50
2466.89
1055.35
444.66
1008.06
1204.20
547.94
193.51
368.09
405.89
220.71
690.13
817.36
777.51
431.59
417.67
495.07
391.07
308.72
406.46
254.95
300.62
291.99
323.78
428.28
497.41
661.22
473.32
245.91
258.09
330.23
463.75
441.29
411.79
429.68
347.77
333.44
417.78
2492.15
557.71
522.90
454.96
415.86
447.74
560.98
840.76
1525.86
1233.98
679.13
328.77
913.10
1218.90
628.28
393.39
321.44
379.73
323.42
305.41
299.48
466.18
238.90
476.51
422.54
707.05
271.90
218.54
330.55
281.97
204.70
349.04
192.73
384.04
435.22
217.81
289.85
526.46
714.45
758.11
681.82
431.38
433.36
282.17
310.23
359.31
333.00
666.54
1138.67
1387.79
1264.17
647.54
379.01
549.94
436.36
301.71
544.59
302.48
336.26
452.31
512.95
710.16
661.32
682.37
353.18
346.48
233.15
397.99
198.91
848.52
748.11
479.90
334.01
372.15
351.09
301.96
612.69
611.73
402.65
260.07
252.38
343.90
399.02
463.32
427.77
609.46
515.83
199.35
3077.21
475.32
378.19
590.01
386.00
326.10
433.60
428.86
376.81
410.76
252.14
307.05
215.73
895.40
768.59
808.19
682.27
445.20
325.84
518.93
415.78
379.35
306.10
342.62
276.51
472.01
710.50
551.92
546.57
714.64
1302.52
1468.31
919.89
298.35
1104.68
1542.44
1097.30
481.54
288.48
416.37
528.44
419.24
510.11
554.72
527.78
414.37
552.96
576.53
595.74
315.72
724.86
181.70
183.21
344.13
446.90
444.94
483.27
426.17
388.36
366.51
384.90
452.35
380.01
517.82
736.24
1049.70
985.05
517.79
156.07
565.46
798.42
475.85
332.27
347.46
477.36
1425.97
418.31
360.76
288.88
432.64
387.31
439.02
288.83
247.90
377.48
353.23
262.57
316.48
484.71
363.60
537.46
422.37
297.25
237.89
504.19
535.46
582.08
759.06
692.14
625.83
392.23
382.41
322.02
338.33
476.81
801.49
1196.33
1200.87
1198.65
939.62
420.02
318.34
467.63
278.12
394.05
330.78
1087.53
1623.75
1557.44
831.80
239.98
487.44
748.39
658.78
421.83
727.09
511.92
688.20
848.74
686.65
656.60
744.23
676.88
297.43
255.14
703.20
1095.59
1334.17
824.02
281.66
353.45
432.55
516.50
452.98
354.73
307.83
419.82
1261.32
2243.62
2222.94
1190.12
192.39
871.16
1400.72
1112.51
598.41
374.59
366.16
199.80
313.80
624.19
529.95
362.01
1100.47
1516.25
810.82
377.88
669.89
528.91
681.83
617.77
591.94
531.16
375.60
836.18
551.53
496.32
383.94
364.93
354.36
437.14
437.40
550.57
512.29
473.06
520.73
411.29
499.09
518.70
380.05
273.57
494.52
597.83
736.75
614.37
267.39
327.14
465.56
529.75
422.32
317.05
685.35
597.44
615.83
445.98
167.47
359.89
385.88
514.82
543.87
571.90
297.69
2355.95
555.27
308.82
350.83
455.99
352.89
442.43
478.63
350.18
423.98
327.80
300.67
419.44
885.90
611.11
504.20
620.30
689.68
517.39
360.99
377.99
696.39
789.22
564.24
382.62
286.43
421.81
331.27
419.72
598.64
562.19
498.75
664.15
663.05
566.25
354.36
289.58
345.53
2367.71
304.39
542.92
472.42
481.74
468.08
368.01
287.40
415.35
371.87
307.25
361.01
410.04
706.07
521.55
504.66
529.19
409.67
271.13
229.96
212.32
388.34
385.56
270.33
801.85
814.84
764.44
496.34
370.76
133.67
545.83
434.32
402.51
320.90
275.50
537.76
644.69
1042.62
1482.71
1840.79
1831.54
850.84
423.51
267.68
947.41
974.20
1176.82
720.19
258.33
320.84
831.57
296.60
526.45
766.99
736.74
253.35
617.98
504.15
394.09
293.37
271.61
291.24
306.77
522.22
395.03
543.22
772.30
726.36
411.34
355.49
499.62
375.08
237.68
262.53
383.28
539.70
657.73
343.00
288.09
451.76
745.40
961.86
1086.04
603.33
406.38
802.69
675.64
248.23
848.02
375.69
416.56
474.24
353.57
307.28
533.80
789.78
318.05
436.87
533.70
442.63
325.38
539.66
695.06
701.02
520.03
278.73
146.67
347.15
292.10
455.56
617.85
451.48
201.26
2353.78
269.83
593.86
1074.33
1246.91
1209.00
589.76
228.79
545.76
285.67
253.25
392.88
2282.46
690.93
476.55
300.81
319.10
371.04
587.55
534.33
352.31
405.26
804.77
716.93
297.39
710.76
683.76
900.41
686.32
388.89
745.83
991.22
488.21
461.81
599.09
605.96
460.09
377.33
291.38
323.04
256.81
297.00
378.69
323.26
556.62
753.24
618.30
600.92
572.73
429.09
2279.41
397.68
344.29
295.82
197.76
220.40
379.03
347.37
422.53
439.02
629.20
885.41
1005.89
1143.84
491.31
328.84
498.96
484.92
212.71
334.92
637.83
536.15
277.62
196.84
241.76
2122.47
313.72
580.06
605.09
291.91
278.25
328.62
277.07
259.31
360.97
732.34
939.73
1017.81
1394.32
1230.38
926.90
301.43
352.53
312.05
318.91
344.61
246.35
477.97
840.42
655.40
705.02
299.23
513.01
684.36
649.88
390.14
478.18
409.18
321.40
326.81
615.43
1089.38
1670.51
2104.83
2061.56
1117.45
427.75
1567.07
2021.82
1635.08
1230.30
835.10
313.55
406.77
652.39
619.47
298.21
351.85
260.81
152.29
336.16
369.61
483.24
574.77
633.90
476.39
531.32
588.87
426.98
352.58
312.12
407.07
368.48
421.21
363.25
315.15
291.21
387.78
341.75
2374.21
436.27
583.15
819.93
754.52
770.32
419.20
275.77
359.45
315.36
347.52
463.37
505.25
784.64
320.65
382.94
280.05
519.54
412.51
453.14
427.22
375.05
496.76
474.74
336.57
320.81
533.56
544.30
501.11
429.75
334.92
925.17
614.66
359.55
563.16
496.40
453.54
663.72
2176.97
762.51
756.41
596.04
728.80
648.09
315.35
707.98
1072.28
1039.19
678.79
576.08
464.03
333.78
554.09
633.19
492.83
374.97
322.33
359.60
339.94
379.16
492.26
335.86
366.11
2149.69
397.32
394.14
315.18
536.79
441.71
504.80
552.34
487.44
343.92
322.49
331.96
864.66
2153.51
2645.92
1973.54
501.35
916.13
1648.38
1592.70
1163.20
363.37
356.58
316.49
1516.05
626.61
913.81
584.98
409.80
266.57
352.28
263.63
326.35
392.71
505.81
318.43
479.39
691.89
520.86
298.82
378.86
341.31
322.18
402.28
476.52
299.30
360.45
224.26
426.74
2107.53
876.94
673.97
576.22
451.73
478.62
488.80
574.21
541.24
390.43
290.85
442.36
792.76
1124.52
330.77
299.74
397.07
702.17
740.38
775.48
895.85
789.06
492.59
359.75
438.63
2137.42
171.95
342.63
306.67
489.25
335.83
214.42
296.40
245.12
313.84
215.91
351.44
414.25
808.85
688.29
484.94
398.30
292.16
335.52
302.70
359.37
316.52
491.70
297.26
372.67
390.49
462.99
497.58
496.28
243.55
364.28
358.38
290.46
503.81
514.68
563.73
381.77
284.76
2217.93
470.23
469.43
601.73
872.47
1075.34
1071.61
884.25
949.32
772.21
453.49
667.13
2029.15
2088.43
1723.38
895.96
363.93
435.68
323.87
417.22
249.56
388.66
420.00
651.09
1079.71
564.01
329.09
375.44
343.99
465.45
635.98
409.13
378.93
446.59
537.52
712.62
426.91
523.35
838.23
699.05
450.85
312.87
435.21
511.56
509.77
284.79
320.17
454.47
339.30
2107.38
531.23
481.71
429.88
330.16
328.56
297.41
281.65
561.81
557.64
1040.12
1568.84
2050.45
1892.73
708.33
307.78
1005.01
1372.66
1320.19
1033.60
631.58
162.05
469.29
353.67
1395.26
632.72
444.49
242.23
270.16
502.34
432.79
503.78
649.91
593.44
638.43
330.99
199.89
487.53
520.44
445.18
425.00
337.77
401.65
334.31
366.75
444.06
504.38
281.46
435.45
251.57
305.46
410.84
550.08
485.23
507.00
545.82
794.86
722.46
346.57
269.38
219.40
235.13
2130.41
536.90
622.93
853.00
863.97
848.57
743.20
569.62
387.20
562.00
992.71
864.20
330.71
442.51
335.54
158.35
257.07
363.94
364.48
340.03
443.50
466.74
547.33
592.17
480.82
2174.69
535.66
615.20
913.03
1201.20
1031.79
521.89
494.60
373.22
486.52
598.01
753.30
456.05
859.08
2100.20
2292.72
1308.72
582.55
478.41
344.33
374.44
278.10
289.58
544.33
698.47
784.83
730.47
845.25
530.77
371.07
427.65
750.43
576.33
246.05
412.87
804.48
1036.83
1690.74
759.88
949.54
973.93
1046.88
940.59
493.75
378.13
532.34
371.82
326.97
529.27
627.49
252.87
627.54
825.07
1002.03
845.68
247.52
479.05
463.10
401.15
414.19
633.34
2094.93
419.27
373.27
372.72
601.37
678.83
901.59
488.68
253.36
595.36
979.75
773.37
371.48
544.48
584.81
604.01
514.91
552.35
574.58
495.37
367.17
512.97
443.48
380.28
305.43
2042.54
449.31
384.30
387.26
305.19
468.87
460.41
270.26
258.68
218.94
357.00
243.15
221.25
763.71
442.05
494.71
327.51
417.53
368.21
290.83
503.44
536.63
533.01
394.37
769.83
695.17
936.94
609.92
353.25
222.82
571.39
419.08
295.16
414.70
620.82
489.39
533.87
356.69
2053.50
527.75
808.13
1060.75
938.08
366.90
578.55
952.81
997.27
694.22
237.81
526.75
1338.40
523.73
307.31
461.86
512.45
1023.33
1438.33
1616.79
1002.35
307.07
525.18
1004.20
1565.68
873.23
316.69
306.06
448.52
660.45
529.55
725.53
884.92
650.14
430.79
205.19
1904.55
442.94
361.98
244.99
391.00
453.55
596.63
725.13
420.40
412.47
259.11
327.03
313.35
627.84
251.80
323.15
344.66
554.37
413.35
603.36
457.50
442.99
512.21
549.34
404.14
485.74
700.74
705.99
1078.92
1522.69
1439.15
680.20
368.13
1085.29
1058.69
721.17
377.06
367.41
638.04
633.72
681.97
752.64
648.30
519.80
397.05
520.39
746.44
787.65
251.55
586.52
2713.59
593.63
236.85
399.14
430.49
584.47
431.54
421.76
494.08
360.22
542.66
629.56
664.38
760.56
226.53
214.57
369.41
441.67
268.11
351.72
409.49
240.47
347.93
357.69
357.40
369.21
566.19
528.71
781.38
992.05
1233.41
879.24
444.54
564.09
889.55
556.46
244.41
474.05
1289.69
482.64
335.05
571.78
624.26
704.17
649.08
760.56
610.23
359.34
335.38
240.87
220.31
594.96
427.70
437.87
452.44
264.54
457.13
450.46
411.35
662.74
808.51
714.37
469.87
460.20
444.68
309.23
305.73
287.83
333.93
378.37
482.88
260.92
264.62
352.35
422.92
537.19
2285.82
1698.17
922.31
327.25
1004.06
1249.12
693.78
410.79
508.34
340.82
623.82
609.35
1289.71
223.65
491.65
953.44
679.50
539.13
490.56
256.45
380.63
282.33
209.94
358.54
337.46
505.75
431.44
433.78
375.27
465.45
353.36
395.45
516.49
591.03
535.90
548.30
459.39
1958.51
334.78
402.24
389.23
395.15
459.39
530.37
519.87
454.76
463.21
342.62
351.44
422.82
920.87
714.22
564.64
488.12
387.05
382.86
260.35
316.66
370.23
501.64
487.23
646.96
965.29
976.56
675.56
394.45
376.16
642.79
405.57
414.60
289.87
289.60
576.01
632.70
901.50
1109.56
270.62
316.60
688.05
744.89
331.69
506.16
932.38
996.13
1141.32
978.27
543.97
383.89
381.42
452.05
447.14
320.30
314.53
258.73
382.05
445.13
448.69
394.55
512.46
2120.58
1007.55
743.44
354.52
365.79
288.00
424.80
518.71
535.09
451.41
358.86
234.99
501.88
880.51
1003.49
552.95
353.02
483.02
637.45
843.87
565.97
358.66
443.89
221.81
279.84
1328.73
675.52
662.76
729.42
608.14
343.36
441.51
273.60
531.03
704.57
882.45
731.12
662.97
598.34
727.46
1049.23
946.11
536.26
499.97
1373.10
1629.95
1286.07
663.47
437.72
1818.78
451.06
816.93
1071.74
702.66
227.35
463.31
332.56
314.39
244.99
480.55
891.38
972.82
1166.70
1034.62
487.80
329.92
302.24
606.23
688.39
378.33
329.00
375.83
604.14
550.60
955.96
516.84
862.56
895.75
490.16
208.38
468.26
654.91
442.21
246.62
539.89
671.68
1526.82
430.22
223.44
398.62
300.93
245.90
379.92
601.05
468.90
479.19
316.96
419.78
425.22
486.00
416.49
362.44
430.96
336.40
502.75
550.03
428.61
406.47
527.25
558.73
962.64
1135.63
1034.38
719.86
283.39
1090.66
1799.81
1418.69
414.35
561.87
683.62
650.53
493.75
1421.14
435.30
508.97
520.34
297.68
423.60
608.95
561.92
525.70
342.89
364.78
427.17
550.59
740.45
568.56
356.92
338.23
428.17
485.72
486.84
517.47
786.51
487.25
527.98
627.60
720.70
579.53
391.60
316.07
339.91
400.37
311.00
279.43
477.44
462.50
500.81
520.88
563.37
1839.03
617.34
562.04
553.51
202.98
812.40
519.88
319.60
373.63
366.42
694.81
959.42
1049.48
873.82
346.17
264.39
184.69
382.96
522.78
801.06
1266.95
1272.63
1216.46
520.54
678.86
1612.40
1548.03
724.27
286.56
416.81
591.80
454.50
416.72
371.22
319.13
403.70
419.44
645.02
290.26
221.67
318.77
433.06
771.09
787.52
630.73
409.60
273.19
683.85
616.20
304.67
457.78
633.57
821.69
1229.76
1245.21
953.63
414.85
420.07
482.28
292.94
326.23
401.00
652.63
469.35
387.63
319.26
345.81
541.07
611.28
693.58
689.36
284.49
764.37
867.69
441.50
548.69
325.96
505.88
639.17
842.50
750.64
785.10
883.94
723.88
528.61
288.76
320.46
1794.66
336.72
392.51
451.24
348.95
416.78
384.80
308.81
362.64
408.77
301.66
300.37
278.43
967.03
472.19
165.40
423.37
625.24
983.89
864.46
590.77
314.22
508.35
566.40
765.34
582.08
508.66
412.62
510.72
507.66
103.52
571.55
1152.03
1028.70
1095.63
622.33
259.24
456.70
899.04
528.81
624.17
652.17
768.71
885.88
880.95
708.57
530.69
400.54
346.99
292.88
1691.46
337.40
303.22
564.41
769.03
1042.18
786.18
559.27
420.03
337.58
279.12
264.16
260.02
360.32
524.74
383.06
476.42
388.12
191.49
367.15
534.14
284.88
260.29
331.21
283.89
350.59
386.82
520.64
816.96
1653.65
1861.97
1314.49
312.36
780.66
1182.92
1181.35
1135.90
2757.53
325.03
413.26
571.95
441.70
543.44
498.18
416.49
385.08
398.45
629.27
623.10
412.13
552.65
677.26
568.45
420.93
321.47
255.99
276.71
524.57
608.50
551.26
468.67
429.17
1572.57
284.99
362.43
381.09
492.67
465.30
419.67
561.60
439.42
602.65
670.28
247.85
500.31
1043.02
749.32
707.66
815.66
978.86
539.49
544.07
233.52
285.91
399.45
481.99
367.26
2451.58
1610.84
1417.26
618.28
457.37
685.87
837.44
884.65
750.92
812.20
658.43
477.88
284.12
561.64
391.55
400.64
607.12
710.04
506.54
409.06
321.11
383.16
761.70
398.94
386.03
1427.51
403.15
618.24
419.22
446.28
416.14
168.77
281.84
384.11
227.02
385.59
345.58
654.92
991.79
548.27
473.15
258.42
397.83
391.51
253.38
425.71
326.49
385.42
937.14
1357.12
1694.15
1176.16
346.94
682.66
485.32
272.20
440.31
438.04
314.47
487.11
533.61
512.58
308.72
294.61
186.35
245.07
435.26
430.10
303.87
359.19
358.96
268.62
302.70
344.08
524.19
1747.13
1099.67
1114.53
927.82
466.78
422.79
804.39
404.28
346.09
554.90
558.44
710.10
1593.01
441.98
386.74
257.26
516.00
522.25
234.84
298.22
399.93
528.65
612.90
677.21
789.66
1206.05
871.16
862.25
696.43
440.35
569.40
515.22
455.41
676.63
556.07
511.93
326.44
1557.40
395.06
316.39
156.80
360.62
453.34
302.58
493.72
255.45
352.18
159.78
561.13
957.02
1123.41
471.72
517.37
641.68
249.57
443.24
748.20
879.45
463.88
407.18
666.88
706.66
1428.69
315.26
603.39
813.59
806.36
800.43
701.64
613.96
679.31
608.66
611.27
456.71
547.62
494.84
526.45
758.91
1170.78
1377.67
1439.90
904.53
316.74
358.35
397.62
472.19
466.80
665.84
369.84
927.61
1849.13
2064.58
1479.33
809.55
171.51
250.15
647.16
578.09
1247.49
1595.21
1106.34
327.13
460.30
1052.63
1206.88
688.72
387.72
386.84
447.89
631.21
1288.69
484.53
183.65
428.60
538.04
515.10
571.04
582.41
433.44
533.43
688.84
607.99
463.47
772.27
264.67
292.36
346.31
413.14
619.02
308.57
282.36
291.37
442.21
633.59
670.95
586.32
646.51
310.94
325.44
435.69
782.11
1232.61
1441.32
1111.68
577.54
411.73
440.63
825.60
1728.36
1134.50
518.12
306.55
449.53
259.09
228.38
358.91
488.97
477.13
557.12
325.31
1326.74
718.37
832.74
617.91
238.61
483.75
610.34
635.44
522.25
554.73
258.78
421.14
342.46
562.81
396.43
445.31
656.21
599.73
685.97
514.39
444.87
267.28
596.12
296.27
582.66
1641.56
558.76
474.36
350.92
369.22
343.35
549.03
478.83
504.09
262.37
314.48
249.06
332.55
794.49
475.24
342.45
455.59
640.03
726.89
394.88
395.25
369.32
282.72
245.55
351.73
328.46
449.08
356.69
549.26
419.79
585.08
777.91
860.89
929.45
943.18
492.00
402.74
289.86
703.31
261.40
379.18
680.07
843.99
565.37
287.56
363.76
291.58
383.96
453.01
366.66
415.20
555.19
505.57
633.46
620.81
627.69
425.29
266.94
345.94
360.53
226.42
328.17
701.42
1415.08
596.64
185.70
557.70
379.03
578.32
530.75
333.06
458.31
555.76
555.57
315.96
431.65
854.08
562.16
783.39
768.52
529.88
397.29
258.64
339.18
508.73
645.21
983.63
585.01
693.23
261.14
304.03
135.98
1098.06
1331.43
1262.29
490.41
339.05
389.17
270.55
267.45
237.65
442.10
547.51
669.05
673.48
774.58
808.60
770.50
813.34
369.00
289.76
648.54
462.17
699.51
1070.76
535.71
323.16
266.03
353.12
561.32
509.57
587.20
689.12
530.86
327.30
325.47
1281.34
317.61
273.09
376.77
738.57
1014.00
1363.35
980.12
496.36
583.75
1835.79
2157.52
1540.98
790.05
1620.54
1000.26
574.71
711.02
800.25
486.14
311.36
115.18
305.78
353.09
397.28
361.01
691.36
1195.55
1954.69
2052.44
1245.85
481.07
211.30
469.99
720.92
642.68
859.38
259.41
349.42
222.17
273.66
595.34
829.45
584.75
282.77
565.84
679.57
530.94
564.11
629.96
622.74
603.51
716.02
658.56
616.48
698.34
482.71
208.25
321.96
598.06
372.96
2005.58
1404.27
701.20
541.10
237.11
312.91
252.81
436.55
268.63
294.26
401.88
201.05
209.61
788.07
296.80
281.68
265.57
214.38
251.13
360.62
271.52
152.11
203.16
214.59
295.35
1354.15
1074.72
1573.51
1350.10
710.47
319.03
353.54
1031.80
1402.28
881.67
2708.68
3496.09
3424.93
3161.05
1275.36
681.43
1778.56
2027.24
1909.62
1692.80
1157.04
691.53
595.80
642.37
391.50
156.20
399.33
523.05
553.17
413.42
225.14
350.63
295.37
323.14
295.03
322.42
543.24
442.69
663.74
581.24
507.84
529.21
557.97
616.72
423.67
368.46
206.39
276.36
1199.79
418.77
355.65
425.21
540.60
532.06
487.78
429.55
364.77
447.28
581.88
733.53
750.61
1058.85
258.40
336.09
796.41
279.17
284.81
355.14
323.36
410.27
418.52
387.11
406.18
413.98
569.08
426.35
281.37
373.92
413.08
215.72
578.77
660.18
672.15
527.98
488.24
356.61
1208.30
424.70
438.99
446.19
491.21
298.32
376.01
295.23
434.57
428.81
255.86
385.84
308.44
864.56
251.63
360.34
588.18
593.05
645.82
621.30
444.89
270.71
129.33
345.34
515.23
841.43
1067.56
706.71
399.42
463.47
714.73
569.87
248.98
366.23
477.17
619.94
574.27
541.89
1240.90
522.71
317.77
312.24
282.94
258.51
315.29
525.30
519.59
328.55
348.30
299.43
443.82
1109.38
1152.51
1439.29
998.27
665.79
400.25
213.31
738.29
711.74
546.96
476.93
202.35
772.79
547.15
772.13
833.72
732.37
567.94
586.98
629.69
467.62
184.07
281.86
736.31
830.64
431.56
398.18
610.15
645.12
520.29
498.05
540.40
671.29
1709.59
1486.59
533.32
172.54
769.11
223.74
552.68
1241.30
1562.15
1390.61
656.04
252.28
503.70
427.36
569.66
529.91
1464.32
356.76
389.91
431.05
648.42
685.33
703.30
586.48
291.36
419.87
170.92
310.43
531.50
483.96
247.72
260.81
339.57
256.47
419.92
376.47
202.79
364.26
438.72
626.43
678.96
655.94
624.71
193.70
352.01
613.13
579.07
267.09
297.17
279.03
292.61
372.18
463.63
475.92
2563.21
364.72
298.57
177.17
226.61
414.26
419.54
267.39
300.72
763.24
965.37
977.98
881.20
766.41
582.76
667.97
608.64
474.39
280.41
434.73
677.35
316.47
334.30
253.10
832.30
3000.03
1361.44
328.89
814.64
1832.74
1737.77
1522.60
1259.55
718.94
392.84
362.50
523.76
398.01
240.75
336.04
370.21
608.18
542.56
269.54
627.70
223.12
398.04
573.62
1070.35
679.47
289.67
276.78
490.36
561.12
526.61
458.16
326.21
229.06
262.33
434.46
366.39
450.00
1333.07
427.54
355.76
519.03
491.27
170.66
364.33
225.48
791.89
1208.01
1111.55
420.02
477.91
752.02
293.03
520.35
381.09
299.51
309.50
318.20
358.49
292.36
390.02
525.61
608.94
1435.05
440.18
395.81
188.53
454.13
518.51
264.91
407.69
530.20
405.11
422.05
305.94
371.95
574.64
516.32
348.44
408.96
320.69
275.02
343.72
393.41
369.11
479.46
459.45
334.24
277.39
303.45
348.83
377.11
529.62
644.89
836.02
836.13
726.76
381.29
246.38
350.14
521.96
1033.48
509.24
376.46
312.74
682.20
744.33
261.46
543.25
738.59
739.63
545.44
316.08
267.80
806.55
382.22
586.24
477.82
258.85
562.50
692.14
844.95
470.77
166.49
384.34
427.05
486.91
691.90
800.98
772.76
575.59
553.45
586.76
669.82
532.28
630.67
475.40
216.48
684.30
1705.11
183.04
238.67
534.84
438.47
162.11
177.53
369.49
241.13
635.45
463.78
276.58
559.29
1486.79
1477.61
467.57
499.08
1067.84
934.27
210.27
599.82
854.40
1075.63
1122.17
502.08
333.11
361.43
365.59
563.14
330.01
307.90
215.78
228.03
230.14
266.70
593.34
542.70
1575.78
181.04
374.82
236.30
468.59
914.42
1003.87
679.45
246.32
797.12
857.48
323.64
1833.94
1307.05
982.60
507.53
369.44
403.73
447.51
504.55
293.94
253.86
192.80
258.35
2812.86
456.87
452.30
320.41
323.23
344.95
263.01
604.99
157.98
285.15
437.36
605.14
649.53
1121.62
534.75
497.32
346.90
171.30
466.74
705.37
524.12
338.93
162.71
598.75
594.27
266.73
457.86
466.94
596.66
505.23
589.31
582.39
521.68
525.16
449.86
395.17
450.13
405.05
2521.98
972.54
916.00
703.27
129.26
596.65
627.02
560.65
375.43
374.23
229.91
432.00
534.57
563.00
532.62
386.56
267.80
366.84
314.75
111.89
343.83
315.97
649.75
1211.30
1399.84
1976.63
857.69
688.84
598.09
321.07
252.27
494.67
952.30
996.78
834.05
992.28
682.78
448.30
391.12
468.82
448.52
522.21
364.90
298.33
184.77
433.72
292.85
294.26
404.37
503.88
681.10
459.41
683.47
893.02
568.54
417.60
203.22
275.32
374.48
463.92
258.67
447.03
2579.32
856.26
756.33
557.17
460.72
322.38
262.83
356.16
242.43
360.68
295.48
204.53
714.43
1400.97
1216.49
870.87
676.49
299.89
555.94
595.42
254.42
238.45
239.07
235.77
342.11
1046.63
935.61
874.70
574.39
320.77
830.59
1155.06
729.55
349.55
516.41
872.52
739.53
961.14
367.40
253.08
250.29
374.46
577.68
511.36
246.01
388.70
679.18
473.73
352.19
253.56
440.50
494.03
691.59
863.08
1319.50
836.80
178.05
504.84
392.93
529.62
650.65
631.63
613.47
217.32
274.30
402.08
678.46
432.35
375.18
581.44
472.30
405.74
498.35
336.55
224.87
375.43
290.27
189.56
369.42
603.50
421.43
497.20
426.16
618.95
443.73
417.32
339.63
410.16
777.42
899.28
532.04
233.82
228.36
264.47
450.11
485.43
330.30
490.56
471.93
403.52
1447.93
712.19
655.47
398.48
1274.50
1397.47
817.61
431.80
396.48
351.00
381.53
423.49
2630.17
538.05
571.58
546.18
718.54
662.25
495.93
282.54
347.59
381.20
359.87
403.17
610.16
1249.51
420.41
547.51
406.87
338.02
748.37
759.87
779.73
723.59
676.81
749.68
573.96
448.58
434.65
371.32
383.27
596.24
332.43
257.54
420.16
395.69
543.93
412.77
299.99
239.36
2656.91
851.28
897.73
513.21
265.16
860.21
738.62
258.12
399.31
537.32
600.79
425.44
287.85
309.98
377.07
354.42
650.79
646.48
654.22
659.91
981.47
545.83
309.47
909.72
694.59
806.46
429.97
594.54
426.93
387.40
499.61
465.17
310.86
337.39
337.47
415.52
475.61
771.40
1006.50
575.13
286.82
743.31
765.40
426.79
372.34
447.44
432.32
389.19
528.99
497.61
1322.66
386.36
403.07
424.23
459.87
631.20
519.78
594.36
482.24
306.14
179.60
304.58
314.29
707.34
350.52
455.18
453.11
534.81
357.57
651.35
645.90
727.28
585.22
492.87
301.80
346.36
290.52
436.39
322.57
251.31
573.73
662.82
390.62
339.21
474.83
627.83
571.66
838.52
2818.43
2025.02
2157.57
1251.19
544.58
1701.29
2371.58
2271.13
1495.74
898.24
295.79
295.81
613.38
363.49
249.94
349.21
315.66
333.91
334.64
260.83
465.04
250.48
448.03
597.65
2534.47
530.93
698.47
722.46
666.48
644.13
877.37
838.59
1019.85
984.81
316.04
718.43
3404.18
869.04
420.96
424.24
413.30
23.50
305.95
378.87
543.32
476.86
398.79
472.69
400.90
870.72
419.95
339.37
297.01
303.65
424.49
648.05
574.38
341.40
472.20
284.83
396.33
391.50
557.72
661.12
751.07
929.20
1283.13
1549.28
1117.75
346.10
990.32
1890.50
1814.62
1205.78
238.17
520.15
638.50
576.38
773.13
675.23
791.16
450.62
298.88
167.62
228.87
260.22
372.16
210.30
336.58
310.22
414.12
461.52
813.59
780.10
504.14
399.78
196.68
248.55
234.21
443.99
163.58
264.27
363.04
451.53
590.33
451.51
576.85
492.69
309.50
463.34
723.24
2429.25
979.06
661.31
388.05
483.22
787.04
647.27
401.96
304.63
836.65
1139.48
1115.24
264.62
554.99
528.15
489.90
415.42
1086.56
1204.79
380.34
732.31
730.95
352.05
332.24
496.89
756.16
743.08
673.21
507.17
353.17
320.09
451.36
330.32
435.88
974.07
1830.53
2152.33
2186.18
426.69
809.15
1429.44
1207.88
576.93
355.36
456.82
557.04
479.97
534.96
322.12
1516.36
232.80
381.17
251.51
341.77
448.63
540.58
508.24
482.12
397.26
281.23
314.29
224.39
516.17
247.08
619.50
860.25
753.56
655.21
651.49
692.92
480.43
335.74
329.96
154.50
275.63
394.68
294.25
381.69
641.73
748.95
664.77
264.80
305.47
325.53
234.29
283.51
415.83
2483.19
294.08
368.42
513.00
589.56
452.39
374.21
340.32
262.29
287.85
644.81
495.63
477.11
976.45
544.38
552.80
601.67
548.20
488.77
439.08
332.02
681.14
572.69
309.56
634.20
915.10
899.97
487.99
364.13
407.44
437.97
578.90
665.79
583.06
329.95
232.47
85.04
660.23
1102.34
345.67
389.03
735.57
857.03
468.91
299.35
274.88
399.50
495.32
481.24
396.97
266.51
362.21
305.01
309.44
723.73
1116.28
1163.81
812.51
236.16
539.81
789.85
820.73
267.22
640.39
404.43
571.61
807.21
459.64
299.36
295.95
420.50
311.34
367.24
402.41
416.51
447.31
573.17
828.11
869.13
533.55
489.14
244.78
916.39
595.55
228.20
278.33
241.91
426.39
971.44
502.96
485.77
380.76
141.55
531.42
748.00
514.45
205.80
348.95
608.31
691.17
678.42
384.57
911.14
959.92
415.65
575.72
502.68
487.61
480.74
522.14
667.69
745.49
622.54
658.82
369.06
375.50
447.12
399.92
456.59
522.07
481.43
661.60
526.20
368.42
301.60
439.48
394.09
362.32
294.82
457.12
281.21
354.53
215.80
347.81
460.52
408.96
556.96
489.83
394.73
563.66
676.41
572.57
552.36
648.68
704.44
545.86
187.10
630.28
408.34
249.55
362.84
2309.94
495.58
298.33
355.49
557.72
351.51
470.76
374.21
326.80
628.16
450.68
329.52
548.69
752.82
440.15
464.68
579.73
403.77
395.26
268.88
243.04
507.19
340.37
358.85
306.88
445.82
362.72
658.05
1049.05
832.40
619.81
482.03
417.58
359.22
467.40
298.84
215.76
273.92
2564.16
205.07
225.03
420.81
432.78
432.51
453.89
392.20
128.09
318.27
437.36
345.14
324.87
777.40
580.22
430.96
614.26
499.19
408.05
252.21
395.58
398.39
605.21
451.26
182.79
240.66
461.51
699.74
747.97
792.97
395.96
966.08
565.59
532.71
828.34
552.41
442.24
414.37
1460.30
529.83
510.94
295.41
311.22
299.62
306.01
314.87
439.11
514.01
342.48
421.02
260.03
501.77
531.59
727.44
565.61
469.78
298.04
354.83
329.35
284.34
273.10
732.72
961.15
835.70
780.25
518.21
145.80
329.90
237.61
233.65
239.16
335.10
390.63
312.80
383.96
233.81
646.79
424.24
650.98
476.24
616.94
640.95
661.44
414.59
417.72
615.40
787.61
840.17
526.54
357.68
1085.74
1243.67
892.25
794.24
246.07
303.44
697.64
712.50
409.52
334.85
3022.12
374.97
417.45
622.03
672.34
905.77
810.08
476.58
579.62
204.56
341.56
721.36
725.93
604.10
490.78
504.81
584.53
362.66
336.45
297.57
398.01
503.89
580.67
608.76
344.39
420.58
447.78
326.16
277.58
449.29
236.70
553.27
675.58
499.92
557.70
843.79
1107.48
1011.03
1432.80
629.85
1243.71
1407.80
551.90
657.76
926.40
971.96
372.66
1032.09
1279.11
456.31
492.87
593.64
434.27
343.59
680.12
321.82
657.56
1368.72
2395.61
3458.50
3036.35
1742.66
405.94
1694.53
2233.07
2315.79
1662.22
740.49
388.84
610.48
587.76
389.83
271.45
1477.23
332.70
312.56
254.36
349.37
283.25
301.00
427.45
591.98
524.50
570.81
422.23
317.71
410.87
517.36
899.39
1181.44
790.08
571.04
282.77
196.66
674.24
1281.18
1703.01
1237.06
461.46
597.66
816.80
739.55
746.94
383.47
454.97
482.68
796.04
928.83
787.68
426.02
1746.53
879.70
299.97
322.93
320.48
249.32
382.63
509.04
454.83
391.89
443.82
279.09
348.77
750.91
545.56
365.30
421.29
910.40
1171.01
1116.64
576.74
298.85
306.92
265.31
239.15
742.92
441.96
447.03
512.28
271.84
387.02
303.14
410.53
511.38
396.29
392.54
354.90
435.18
709.74
792.39
901.62
784.83
265.21
446.89
431.02
241.19
279.09
255.14
238.80
255.79
2358.12
365.18
324.47
292.30
594.78
509.03
425.06
434.56
375.28
350.67
403.42
324.57
388.79
834.93
557.22
455.20
310.13
388.62
359.51
279.89
347.68
524.35
580.19
684.77
597.76
579.13
685.73
539.06
411.06
371.47
262.85
457.55
393.33
377.65
269.38
505.03
571.05
805.29
2425.35
1866.32
2147.83
2013.51
1117.78
370.22
789.56
1174.49
1165.35
876.97
956.69
745.10
426.17
430.31
368.18
694.15
1146.88
1235.29
522.32
387.40
872.36
1077.29
338.38
1298.81
1938.71
1931.35
459.18
1177.96
1544.09
1343.21
958.14
501.02
183.84
394.46
324.93
1437.25
409.09
449.96
354.29
419.75
421.18
341.57
349.00
458.85
371.04
347.46
423.24
594.66
811.95
853.85
718.23
528.77
219.86
567.62
1123.30
707.04
325.82
352.57
500.06
520.81
942.18
563.14
800.00
622.24
439.22
336.36
306.50
430.00
334.48
407.96
441.45
280.08
318.12
386.18
448.46
457.94
459.42
483.50
489.11
408.07
443.66
379.42
344.42
274.36
264.25
2210.32
890.39
867.27
567.90
520.58
459.06
317.22
401.30
256.42
277.33
265.69
383.19
249.61
435.81
450.95
380.91
398.98
586.14
376.24
424.17
569.33
840.26
1210.47
1262.05
1533.03
2399.62
1723.92
868.94
708.58
1957.00
2615.64
1718.29
738.64
417.55
226.79
340.24
390.69
508.50
277.29
356.34
269.62
296.22
291.15
226.05
399.65
446.81
419.91
472.51
365.69
2233.40
385.73
365.36
297.62
525.05
553.27
801.79
685.49
434.19
329.34
377.38
317.04
329.10
731.97
315.87
438.68
252.51
358.40
392.85
410.11
424.26
383.51
299.90
358.00
405.24
409.64
609.98
373.52
351.86
476.72
581.11
567.78
579.67
662.57
508.09
479.43
302.14
295.50
222.12
407.74
306.78
346.04
317.93
323.43
288.05
389.44
401.15
405.24
407.81
483.85
515.92
2313.96
555.40
393.08
365.95
271.08
172.28
277.23
355.66
433.88
529.36
450.37
381.48
268.29
678.30
410.32
570.25
945.66
842.28
411.15
242.93
424.59
636.67
668.55
356.55
298.70
2302.75
283.35
226.80
301.08
590.81
728.69
539.93
432.11
1103.55
577.25
255.40
455.49
480.82
532.72
344.55
295.28
354.63
292.76
300.69
288.09
386.52
580.02
493.74
448.80
617.73
620.17
636.53
564.78
321.71
301.84
533.25
312.86
329.87
270.85
398.79
814.03
432.18
286.20
2284.65
520.52
538.47
788.83
806.45
733.73
457.17
371.52
938.38
855.84
505.29
379.91
182.64
486.11
422.44
381.50
536.85
466.74
470.33
405.53
370.62
363.42
396.97
350.88
449.07
2236.16
712.56
533.70
423.51
392.10
266.63
476.97
485.64
324.10
471.52
457.74
458.67
665.76
1403.57
373.37
830.92
887.36
415.60
1057.02
1557.58
1475.70
813.81
468.32
345.13
338.19
571.49
556.49
242.52
289.76
244.59
379.53
305.25
351.70
421.66
434.80
478.57
550.26
2098.19
501.66
451.23
500.14
198.14
324.96
227.34
208.50
368.12
325.07
392.45
336.73
301.46
751.62
447.27
391.54
500.27
407.87
402.61
401.24
415.74
361.10
437.19
372.56
347.47
457.90
654.03
440.35
444.11
390.02
398.86
456.90
265.70
366.84
619.73
678.05
1067.21
1124.66
863.55
302.29
255.07
488.19
579.69
241.87
344.28
235.38
326.55
220.46
545.47
513.17
407.17
654.92
392.78
465.80
413.58
454.98
322.91
305.07
330.10
246.29
438.20
342.84
288.59
390.89
579.73
459.74
655.04
728.99
492.64
306.33
311.63
383.08
385.70
381.96
395.71
550.55
2230.95
728.29
792.78
491.54
77.53
438.78
926.18
851.99
377.97
445.06
477.70
528.39
1069.91
1692.42
1782.59
1249.09
293.77
1150.26
1607.16
1036.62
594.40
263.85
294.41
216.19
1456.12
555.34
941.64
1439.02
1343.83
1170.79
1051.71
698.51
387.56
1301.51
1614.15
1207.41
365.79
399.04
688.34
574.49
355.06
169.84
328.95
497.32
564.04
388.65
346.49
390.26
694.51
282.24
462.86
596.44
549.19
989.38
1009.96
406.87
649.52
623.66
240.77
331.56
2519.40
528.67
274.26
495.45
438.86
294.82
507.69
512.02
654.37
676.31
595.59
291.79
422.27
848.02
342.29
329.55
343.38
845.15
821.46
299.62
458.86
311.87
477.95
1272.55
1420.28
1150.56
698.75
599.74
412.31
326.37
209.80
345.28
295.82
270.89
294.09
363.65
355.59
258.43
731.92
414.06
380.75
427.96
451.60
434.72
310.95
403.02
445.74
402.97
369.04
408.35
436.15
571.16
399.58
369.87
321.72
214.61
296.80
455.14
550.98
716.63
497.40
207.63
183.60
264.17
506.36
401.52
601.76
601.59
402.87
298.14
387.37
422.01
420.12
360.91
402.73
392.14
2095.89
301.41
333.27
468.45
363.17
337.73
330.82
374.65
188.56
361.05
380.75
298.89
445.49
716.78
553.08
505.43
444.45
392.74
610.90
744.44
613.51
554.98
239.92
339.30
200.43
309.15
524.68
278.13
314.87
280.95
353.47
395.71
543.31
560.11
339.59
242.37
385.39
577.18
556.77
600.20
572.38
408.14
338.53
278.78
404.57
243.20
267.78
313.76
402.59
337.24
344.48
2034.93
564.44
416.80
406.56
288.67
410.70
480.38
432.95
460.28
524.47
466.68
381.97
290.54
662.14
360.76
502.26
369.40
378.90
377.61
259.79
336.62
274.90
296.52
361.58
524.79
429.80
780.47
618.64
516.33
528.31
444.98
223.68
339.23
377.08
457.78
719.22
1111.10
1182.09
855.60
595.25
309.77
511.97
899.53
594.00
456.35
1017.92
1406.42
1176.48
385.05
1225.04
1943.07
1583.99
1240.43
545.83
207.58
287.44
400.67
591.40
572.45
698.21
760.77
440.75
712.39
324.21
403.62
666.82
393.10
345.03
337.97
269.88
317.36
393.27
431.73
483.53
357.26
581.61
696.61
1083.17
1336.59
1540.18
1276.25
920.40
421.98
350.13
428.64
801.70
760.67
944.73
657.19
398.44
213.79
320.01
351.79
294.57
361.34
392.61
395.44
293.97
729.41
1771.67
1280.32
891.77
538.06
283.95
407.97
305.61
263.98
270.22
389.65
355.65
503.32
2065.32
533.81
497.14
788.02
1190.27
854.51
420.84
312.28
333.06
408.36
267.48
520.42
495.77
473.66
480.77
324.65
264.58
444.09
410.03
362.70
713.64
958.45
820.75
667.72
423.34
1501.57
636.47
644.50
306.78
486.80
311.13
258.20
328.93
229.17
605.17
976.84
1230.37
1278.32
487.84
372.97
449.71
646.70
660.63
449.55
335.23
377.97
339.25
485.62
557.54
542.82
1002.95
642.81
507.78
492.68
1002.23
1604.25
1122.50
411.23
916.53
1516.47
1003.17
525.43
501.78
767.72
425.94
445.05
534.62
526.73
301.22
279.50
440.50
455.70
354.55
510.60
1578.66
701.74
867.03
1122.59
753.00
364.14
385.94
612.37
649.32
1229.00
408.19
682.72
2037.13
654.20
390.74
428.02
346.15
322.10
331.24
562.84
310.85
351.13
272.73
348.41
296.22
720.98
476.26
474.45
333.95
392.40
449.99
371.39
372.30
432.33
236.93
389.62
348.60
559.32
1376.49
2002.39
2453.61
2070.58
647.10
679.23
1303.78
1776.11
1505.97
1010.40
264.75
1265.08
759.17
1072.27
908.32
811.64
391.39
281.20
555.84
701.89
638.00
223.78
292.15
1295.66
318.51
302.01
300.28
401.44
207.06
387.84
350.40
362.53
424.55
569.64
643.07
503.93
705.24
468.92
301.94
237.60
355.25
242.50
531.64
513.87
473.35
516.13
456.09
442.38
464.57
645.31
463.20
349.24
358.94
419.74
478.50
571.87
535.04
503.23
350.18
210.21
303.75
1895.51
350.34
337.69
333.43
284.15
320.96
409.07
298.10
507.24
502.26
483.50
591.34
470.30
1000.99
892.21
791.57
880.54
828.71
494.72
406.27
345.61
456.32
353.92
305.41
425.70
1678.88
293.26
365.50
333.26
614.25
656.97
552.65
672.28
365.00
536.56
631.04
451.06
325.74
641.41
448.36
354.74
628.97
587.17
551.76
767.90
1057.50
1190.23
982.18
366.19
870.80
1672.03
635.49
197.62
401.44
325.24
362.31
340.68
455.95
603.80
833.61
1147.96
1443.39
1859.64
489.07
476.41
1015.09
937.79
599.15
220.27
368.53
374.63
367.56
402.47
442.40
1247.83
596.96
828.44
1126.58
833.76
567.96
378.56
175.62
348.38
365.94
306.09
258.24
1302.73
495.88
280.58
442.25
241.07
325.39
430.97
456.98
234.80
171.75
599.58
1233.03
1340.32
910.92
345.90
560.56
543.22
279.64
385.44
296.56
586.56
547.64
356.54
450.17
410.18
734.43
408.00
399.42
442.47
368.86
310.85
272.72
363.74
481.60
436.98
505.65
284.66
547.89
758.69
581.91
753.02
541.84
244.25
334.03
376.10
1041.34
655.99
301.18
272.50
338.55
1820.62
715.74
617.65
562.07
479.21
352.78
401.74
464.85
201.35
338.27
319.65
420.69
403.90
697.49
462.35
413.77
636.52
588.33
659.38
540.79
603.46
549.33
464.36
455.61
341.26
434.74
719.44
504.77
543.47
427.98
313.06
318.99
381.05
351.96
301.95
225.41
337.87
481.13
647.44
795.93
400.74
267.70
338.67
201.80
468.03
533.49
506.06
438.24
321.54
249.38
414.75
1715.73
484.14
550.84
504.40
483.57
428.49
355.77
502.69
363.74
164.28
432.01
304.08
332.30
641.63
361.50
371.89
345.04
282.63
329.12
497.71
565.80
725.82
750.99
714.74
550.75
348.84
507.93
316.11
420.32
711.62
491.99
457.76
299.81
727.84
581.50
440.13
441.06
720.58
572.58
557.77
547.97
479.21
654.39
762.44
743.96
446.23
340.97
488.57
324.84
326.99
185.00
1775.06
229.78
311.93
602.38
253.80
237.30
362.49
417.86
438.42
564.34
625.26
796.05
661.08
865.27
520.42
565.86
277.40
302.96
748.85
1053.48
968.00
769.19
523.26
233.29
245.66
1814.28
309.93
326.00
324.89
291.19
426.22
416.61
335.91
215.80
320.16
266.86
831.95
1020.92
1269.69
532.76
296.06
411.96
239.02
285.20
253.47
246.62
327.96
322.72
240.64
362.33
1852.79
420.45
444.78
315.40
480.35
812.91
711.88
437.15
325.48
199.57
479.23
502.56
230.54
453.87
333.05
460.69
571.58
679.58
533.92
548.61
501.01
708.69
632.22
692.25
645.12
201.73
596.11
388.32
509.25
477.62
374.62
378.97
372.22
181.92
412.40
352.76
407.22
463.97
1668.21
431.04
334.63
427.56
413.36
529.59
541.81
554.66
339.49
361.54
407.14
429.55
445.80
796.93
230.42
444.91
397.67
376.99
384.56
349.32
310.58
401.73
346.83
478.81
713.57
351.66
535.28
314.88
537.14
426.05
409.37
664.05
592.91
346.54
592.54
630.52
535.30
504.03
294.92
216.44
422.33
537.05
626.20
509.06
443.20
337.33
538.92
456.37
417.53
410.86
322.89
1533.26
397.82
438.67
314.84
256.84
144.80
420.66
522.12
527.28
334.08
648.40
1071.14
714.25
374.71
293.00
226.61
319.91
441.72
598.75
488.28
282.72
434.37
343.50
406.61
493.74
436.46
732.14
658.49
823.58
1023.39
1158.34
711.87
326.60
481.64
571.57
587.12
527.17
526.02
948.19
457.09
544.90
407.76
240.96
507.39
460.30
335.70
778.64
821.14
840.63
603.54
370.40
380.35
391.19
490.29
594.13
560.07
633.13
453.45
323.31
864.70
1280.58
1483.07
485.24
1208.12
1232.12
1104.45
831.98
634.89
525.67
634.79
676.26
638.60
667.82
672.46
513.52
1704.94
240.60
404.34
536.50
337.95
442.86
523.84
510.35
665.87
350.15
412.58
300.87
262.86
544.40
358.00
398.35
653.60
355.55
290.88
230.65
371.66
491.04
420.86
439.90
354.95
490.71
596.95
521.46
537.25
847.34
613.97
314.63
306.75
336.72
296.25
404.07
463.86
413.87
1439.86
365.95
374.89
353.73
544.76
434.98
520.00
433.31
456.41
504.56
338.15
398.64
294.27
766.06
383.66
308.22
431.47
362.45
388.58
393.61
571.72
626.89
578.65
530.41
536.41
336.91
526.89
383.29
453.30
501.64
616.64
495.56
579.42
514.37
382.23
246.02
311.40
391.67
266.72
531.80
546.67
317.57
280.69
146.10
218.26
491.66
633.30
469.10
228.74
254.30
383.15
1553.76
318.13
698.23
1031.23
860.43
659.22
520.47
327.66
247.70
372.81
363.44
336.88
674.10
935.48
879.91
818.46
561.85
383.90
309.94
240.74
444.55
523.89
567.05
686.34
427.95
430.06
354.41
262.78
414.71
397.08
405.39
434.20
377.81
395.61
352.95
225.99
292.16
286.31
407.90
661.24
908.16
900.00
869.53
637.16
277.13
459.10
336.40
402.65
453.86
566.97
1678.59
972.55
390.77
318.86
333.37
611.93
625.53
497.69
534.32
623.84
585.01
501.65
317.86
704.22
675.64
408.63
376.80
302.29
348.10
229.12
207.43
239.90
211.67
280.95
302.59
1526.49
191.50
332.79
376.97
311.10
452.73
393.29
544.85
448.41
428.05
564.61
488.00
464.84
867.00
331.33
363.95
425.60
405.62
347.81
501.84
406.49
415.13
404.27
378.38
300.98
330.64
325.90
267.91
238.92
361.70
750.46
657.98
620.18
484.21
485.46
309.78
350.10
343.21
1252.64
449.87
395.09
344.60
363.29
488.81
423.64
387.66
376.49
390.19
359.82
217.58
305.48
667.24
338.11
322.17
345.69
329.90
358.07
165.88
342.37
363.65
385.17
382.12
327.05
474.04
628.61
399.24
494.75
643.23
441.25
439.35
409.48
409.28
422.59
311.86
406.85
265.15
432.32
524.79
627.49
1109.19
766.76
250.27
384.65
439.38
781.80
633.51
323.44
586.99
720.23
1540.23
1183.41
693.99
451.64
363.91
377.84
511.23
302.00
469.10
834.38
454.52
329.29
228.66
618.06
1196.53
1067.73
417.69
217.74
306.43
554.15
757.47
686.27
427.03
273.03
301.41
659.40
181.15
287.29
239.70
360.28
344.44
328.09
382.67
345.34
428.62
384.17
415.38
431.77
546.96
608.20
813.75
1168.67
1353.81
885.30
486.13
1711.86
1121.84
450.62
425.37
784.74
789.06
296.88
259.73
261.79
311.95
385.49
476.23
474.29
390.73
305.00
184.27
260.19
1148.01
513.67
472.59
454.36
453.26
482.51
449.16
569.75
391.06
343.19
84.72
228.91
417.29
859.79
527.46
359.70
273.62
391.36
318.78
393.42
329.94
391.58
471.53
454.33
645.90
522.38
603.30
605.95
444.38
489.24
190.43
222.08
622.55
1068.70
278.98
743.28
594.98
161.72
1387.70
818.71
732.07
588.27
538.31
371.30
181.88
316.89
478.02
462.82
523.79
386.98
503.28
403.98
399.56
398.31
512.95
372.42
319.33
478.85
690.85
636.75
593.15
588.89
394.38
388.72
433.60
401.83
397.44
464.45
569.53
347.41
302.95
379.31
248.88
381.79
291.86
441.49
1282.10
565.67
359.60
455.91
341.29
413.02
326.04
416.57
353.24
325.05
349.05
436.01
456.39
955.18
571.69
660.78
391.80
552.63
645.45
529.04
427.30
602.97
625.80
657.69
728.36
370.22
491.14
398.70
269.48
290.86
334.61
336.47
293.79
402.17
602.24
332.15
367.14
784.19
1772.61
802.65
503.98
476.06
337.17
312.53
314.67
713.86
898.16
521.82
285.78
116.47
361.25
559.13
254.51
239.36
313.01
279.27
166.96
245.65
236.94
448.10
397.30
461.07
425.53
554.06
452.02
413.15
444.94
332.24
425.17
495.37
510.99
497.63
391.77
390.18
508.64
704.66
1517.63
472.83
289.16
281.27
486.89
1453.20
1875.76
1644.96
880.85
432.46
1064.47
756.79
1088.76
510.05
701.85
314.37
324.69
317.06
225.32
239.42
338.47
533.28
436.46
480.39
437.89
529.62
330.03
423.04
346.14
322.90
381.13
405.54
305.41
239.09
217.67
338.58
419.95
1169.64
325.40
251.96
493.84
482.55
331.76
406.07
517.41
637.96
680.18
518.07
386.06
185.39
725.08
619.86
539.97
485.26
367.11
269.61
420.53
250.89
429.37
642.87
663.64
531.07
342.94
714.84
466.57
651.64
790.13
510.67
274.57
428.39
348.08
343.81
269.25
610.56
673.64
506.22
519.09
279.31
635.46
429.23
275.30
300.97
431.77
365.34
299.25
234.50
304.47
310.86
1075.05
409.97
288.59
498.31
565.09
577.56
539.76
511.63
549.90
427.05
251.62
446.87
402.82
967.00
597.88
473.01
439.81
391.04
629.84
434.33
219.53
360.64
702.42
602.21
519.37
344.67
315.14
630.86
970.12
535.08
304.49
568.97
586.17
553.01
381.91
513.57
459.74
617.06
1644.04
588.68
641.68
693.99
727.77
654.37
643.36
322.27
330.45
576.15
914.72
504.67
239.65
359.27
350.55
514.63
547.08
588.96
482.00
494.92
466.33
302.42
450.51
371.89
296.89
2898.74
358.93
415.82
548.68
431.34
344.84
326.47
359.83
182.34
396.61
709.74
759.07
442.40
774.30
326.25
544.94
415.79
361.05
506.78
499.62
579.17
522.34
620.23
768.70
730.64
874.68
1298.72
1402.28
981.65
354.66
401.05
567.12
1004.08
1256.31
1194.99
843.12
706.12
1473.85
578.34
280.04
737.54
1336.14
1697.28
1498.70
1834.37
1873.51
1180.72
415.09
496.73
742.85
585.24
537.33
509.07
292.51
280.30
265.14
253.83
244.24
257.57
320.64
466.41
1553.92
743.28
735.91
677.27
377.93
274.95
297.31
396.81
241.99
368.39
413.24
577.99
451.05
744.18
622.99
621.42
507.43
283.92
276.49
292.51
309.03
442.77
802.98
1113.09
1442.25
2301.07
2768.59
3539.19
3406.76
3228.71
2153.77
636.18
1190.62
2677.07
3232.51
3016.26
2672.87
2111.17
1800.37
1190.15
314.82
665.00
757.07
502.64
325.17
467.14
742.94
948.91
1422.51
1045.67
669.91
546.19
863.50
891.87
354.26
760.37
714.78
380.10
319.51
378.21
808.94
381.65
374.40
246.41
260.09
369.77
430.70
363.13
503.22
407.46
336.11
455.57
426.85
746.84
754.21
376.73
522.88
615.86
438.34
1131.51
929.52
399.82
251.50
462.48
440.95
930.94
569.22
578.51
607.15
634.55
487.48
279.82
286.48
490.40
518.23
520.16
476.03
503.26
440.87
404.25
379.60
404.30
402.07
444.95
662.09
1174.15
1931.00
3058.72
3320.01
2716.38
1622.75
478.18
1785.49
2334.49
1888.94
1666.22
1680.90
1148.66
422.47
427.15
200.37
561.77
576.69
503.77
539.43
459.60
389.97
358.06
280.86
470.35
530.88
592.12
487.17
274.68
310.97
197.58
164.58
324.71
344.19
397.80
305.09
318.63
565.35
560.06
673.62
590.28
1214.09
601.84
299.49
303.93
383.83
414.92
528.92
809.49
804.07
835.01
551.15
335.23
371.78
647.97
246.93
520.80
576.93
414.89
508.03
335.76
377.04
384.18
484.75
597.01
598.13
559.67
517.48
516.82
467.05
412.85
356.27
423.94
411.13
421.82
551.81
384.77
461.55
469.10
1100.80
498.19
480.29
512.90
370.98
310.81
310.31
384.88
456.67
612.57
559.10
971.10
1274.09
1254.78
375.02
1051.30
1422.52
946.22
283.96
558.46
1042.68
947.99
581.90
635.19
1551.04
659.77
526.64
386.03
488.61
329.78
426.21
318.02
342.57
242.47
317.22
263.32
255.09
565.58
313.57
227.59
312.81
297.57
320.33
400.60
496.03
574.44
763.91
728.87
458.56
383.40
1313.06
820.65
368.19
344.53
593.33
411.86
466.92
579.08
495.46
547.83
316.89
435.67
1507.37
361.63
398.09
354.61
442.61
632.51
461.04
474.77
443.42
432.84
364.17
455.30
462.49
666.34
297.56
346.51
445.89
799.05
512.11
486.21
636.41
385.24
421.05
520.61
319.96
364.26
399.22
371.54
540.34
511.27
431.35
268.95
268.08
482.30
355.60
529.40
425.00
527.48
1218.63
571.17
486.34
496.19
565.96
558.63
468.49
568.18
358.05
392.11
438.51
340.56
303.78
619.87
365.56
388.83
381.89
626.27
604.00
429.39
323.56
335.95
476.16
558.98
583.03
255.08
585.35
456.69
532.81
534.83
552.90
528.88
441.47
275.70
263.21
421.84
503.36
416.54
562.48
586.99
514.56
524.74
692.32
427.95
407.04
410.16
423.49
480.38
458.20
453.40
435.02
2716.69
184.36
210.84
219.91
251.40
248.89
294.38
306.03
377.38
440.81
538.99
524.58
584.48
1097.60
446.99
610.74
656.29
495.20
346.12
592.90
517.50
432.92
502.82
437.97
249.10
188.41
342.50
300.93
274.31
319.69
220.89
365.06
241.04
360.68
644.34
1412.50
2150.23
1972.19
1596.25
555.70
470.62
341.22
1314.01
1719.43
806.71
253.92
360.01
396.97
376.41
370.09
562.30
531.97
821.88
931.24
837.57
663.89
448.00
342.50
433.34
406.55
409.49
340.69
2965.57
862.60
756.00
533.49
325.85
343.00
249.56
293.56
277.05
395.36
350.47
365.77
384.87
621.49
340.17
344.97
477.35
310.25
343.42
409.39
609.40
499.73
545.53
515.63
426.82
467.14
698.99
663.13
671.70
578.53
568.90
615.98
367.55
250.76
218.07
289.41
356.73
489.11
2588.81
703.66
585.38
451.47
429.36
406.44
402.65
387.95
289.69
338.08
530.77
657.96
943.73
1256.20
527.03
287.47
317.81
176.15
311.83
233.54
214.99
259.98
226.33
593.93
522.85
2548.23
545.42
732.70
841.38
375.01
280.84
286.62
226.53
291.16
292.58
328.15
470.69
605.26
816.20
357.42
333.58
302.44
1160.97
1707.06
1366.89
520.52
867.74
1768.92
1579.96
1263.70
857.95
360.76
292.31
451.54
595.48
325.76
582.13
367.01
551.38
545.44
273.02
397.64
1466.84
397.14
482.89
683.88
785.52
547.44
599.58
671.30
561.64
269.33
324.56
574.55
737.72
601.55
208.30
172.55
369.58
377.21
442.29
645.42
1169.77
1716.58
1441.36
683.28
280.23
1282.10
562.31
289.96
195.82
248.20
320.76
423.95
603.19
1033.76
849.03
453.30
338.61
1451.68
227.88
286.37
349.23
530.94
507.91
651.39
455.92
358.60
685.54
1147.05
642.35
269.28
246.23
415.51
460.76
394.17
220.28
286.13
351.04
275.79
380.19
390.01
541.60
382.74
2505.36
298.72
413.16
434.54
470.54
551.33
469.61
342.77
519.95
526.91
496.81
468.57
459.11
1188.29
592.14
617.37
722.62
639.20
480.55
334.98
198.49
499.58
392.56
154.96
353.98
328.05
341.32
308.41
349.64
221.40
203.86
456.83
517.81
489.45
270.42
275.16
435.44
418.36
2633.62
543.43
334.42
267.99
327.19
500.86
844.90
1379.82
1489.26
990.39
619.25
291.42
1805.57
1304.50
1081.73
1109.90
502.57
279.04
328.83
382.18
535.56
507.37
697.35
876.73
1579.66
949.88
518.44
367.38
299.81
395.83
389.68
316.00
205.68
306.49
282.99
376.65
2945.62
471.93
528.10
363.31
249.68
410.47
540.08
494.62
431.38
402.90
488.99
741.14
786.56
1265.90
812.39
516.56
476.68
359.89
522.04
653.11
583.66
255.92
231.02
276.12
179.67
2823.92
545.97
518.81
250.80
244.52
310.20
415.65
436.83
481.33
439.42
428.36
245.02
418.96
752.66
340.32
466.57
444.15
408.18
396.41
412.64
433.20
458.25
557.00
536.30
560.98
413.97
423.65
457.64
558.04
589.40
388.54
272.50
286.97
258.93
326.84
594.09
717.49
731.97
443.50
376.79
341.87
289.63
273.58
270.07
203.90
350.19
332.76
261.76
161.98
404.47
355.26
2582.33
398.91
399.84
354.97
311.59
471.29
540.09
642.07
376.97
278.38
207.58
337.33
324.20
845.69
441.58
287.69
186.41
275.02
379.77
344.39
372.46
383.76
444.85
460.33
563.22
575.72
560.54
385.01
465.72
417.52
421.54
638.98
544.63
502.97
202.85
768.70
1142.86
331.02
1047.36
799.05
732.65
476.93
263.95
300.04
499.74
874.00
762.25
613.76
401.13
457.02
483.15
690.88
724.05
567.46
501.12
283.41
830.10
1035.32
1028.57
801.21
298.84
367.71
190.18
1369.31
523.52
524.58
582.24
877.07
952.30
643.02
326.59
279.68
155.13
216.86
468.48
509.52
901.05
1300.34
1468.95
869.64
411.67
572.53
1018.47
910.62
807.12
597.13
370.42
1495.25
264.09
137.04
370.59
335.31
458.37
442.03
309.65
426.87
436.39
432.56
332.21
355.99
642.42
459.99
512.81
421.73
325.86
400.45
460.52
530.33
590.35
534.19
355.38
370.41
366.52
553.27
676.96
642.93
882.33
903.59
697.40
298.29
904.73
1247.65
474.45
328.95
320.08
555.54
456.21
435.93
349.84
258.93
411.75
418.49
299.63
507.47
535.19
515.44
468.90
516.93
413.27
378.14
408.58
315.02
473.47
379.48
507.63
386.77
377.30
477.23
442.72
370.43
2425.70
488.32
351.86
393.92
412.72
339.03
304.51
388.90
582.76
344.99
303.61
315.35
259.05
723.38
269.07
398.47
512.31
518.75
313.98
353.90
258.11
187.03
301.14
498.30
494.93
457.97
620.18
379.01
146.53
225.48
334.51
421.64
395.84
321.14
382.92
392.48
400.14
583.87
538.12
502.15
336.39
496.44
615.02
588.32
683.78
408.70
261.33
302.53
330.21
328.68
341.97
2401.98
345.74
451.38
359.47
345.48
434.14
372.69
556.11
669.80
687.57
612.19
557.15
366.93
564.01
258.45
458.74
524.73
363.22
523.03
423.07
259.35
423.03
468.83
429.00
463.54
595.01
805.65
715.24
339.77
336.04
280.38
319.60
456.59
586.46
551.81
549.07
457.01
294.27
230.82
484.39
298.33
221.07
353.50
654.73
890.84
1038.40
663.68
337.84
470.59
552.95
804.44
1280.67
620.36
303.13
422.14
294.69
319.64
364.41
293.30
180.91
353.64
232.44
347.63
472.10
692.40
827.63
529.05
446.94
330.79
384.22
416.76
579.91
516.80
563.84
315.12
828.22
2823.28
442.05
566.12
757.72
735.51
743.79
758.26
725.68
568.38
345.38
331.80
569.65
315.95
704.91
252.09
223.43
420.07
735.98
783.08
571.47
356.85
360.96
482.28
479.69
473.89
539.32
579.30
264.64
252.36
542.47
626.89
725.38
822.88
783.75
662.58
419.29
358.18
410.77
361.01
541.88
572.67
518.65
408.23
392.65
287.69
577.94
343.73
191.83
339.91
476.49
399.17
2406.67
1163.56
1520.58
1781.48
1216.14
604.92
267.44
684.07
529.09
351.58
185.05
393.48
1446.16
525.12
587.95
447.24
536.43
319.38
172.78
426.20
569.17
442.08
312.67
425.52
522.22
661.09
400.89
233.69
268.65
635.05
664.70
628.16
257.30
353.22
338.33
296.37
416.21
369.61
468.16
313.71
509.82
470.85
659.18
377.95
404.30
363.66
463.39
601.47
610.25
475.96
2343.82
655.91
540.77
533.00
582.15
246.19
312.76
293.96
276.96
224.38
310.24
460.36
482.60
972.81
640.49
549.07
282.54
331.19
656.98
567.52
229.54
335.67
383.81
411.91
281.97
305.65
253.44
349.20
432.03
583.90
716.07
462.04
586.21
515.96
499.54
1097.61
1365.24
1193.14
1255.50
326.30
216.26
515.99
659.78
390.12
1122.81
1897.38
1753.40
879.06
341.92
1077.67
1619.04
1287.69
384.65
211.09
245.97
264.62
427.66
868.90
960.70
740.07
271.56
292.14
480.27
747.43
590.72
306.27
604.01
394.85
581.80
551.75
465.80
343.82
342.82
358.87
1385.72
363.58
383.26
274.00
311.42
516.45
670.87
459.77
424.73
149.15
347.72
334.03
167.88
395.78
415.07
527.00
506.93
492.28
666.95
852.20
871.65
667.60
402.88
283.28
297.41
383.96
383.79
218.59
424.47
333.66
398.70
308.22
241.20
441.42
486.91
648.61
577.42
565.81
2287.92
505.12
311.33
289.54
348.60
298.69
429.03
543.74
311.44
319.32
375.44
386.82
327.48
673.36
320.63
389.03
440.64
293.20
403.16
263.08
286.89
490.17
496.85
565.63
489.11
475.40
928.62
1185.41
1431.24
951.52
430.05
697.08
1252.55
1140.01
616.62
371.47
272.81
2317.32
416.09
501.58
403.45
554.41
513.87
615.37
966.36
1098.95
1045.24
725.13
483.25
2260.23
432.90
421.10
335.21
316.76
599.07
933.06
785.61
307.44
552.77
551.12
602.59
328.14
489.33
390.15
511.14
366.37
680.83
818.18
752.58
733.88
519.18
334.44
331.87
407.21
669.11
516.20
281.56
299.05
363.56
346.74
421.08
505.76
467.72
430.31
331.31
323.53
350.76
2144.52
445.52
524.83
490.76
308.44
214.74
337.77
369.06
464.16
393.66
278.04
112.13
257.88
598.57
294.87
481.86
359.60
566.87
318.74
271.57
467.49
450.35
618.41
685.93
753.63
557.17
688.36
509.45
419.87
225.95
225.16
301.28
353.45
599.71
675.24
517.31
307.29
414.99
430.04
621.31
601.92
665.58
590.63
375.45
176.72
246.65
628.28
640.86
395.91
284.90
343.95
2148.16
239.54
246.83
288.41
523.27
386.55
386.92
438.24
519.33
414.24
576.76
406.70
428.58
548.61
233.40
317.99
242.90
287.37
376.65
203.21
250.35
291.64
356.11
365.29
362.10
340.39
592.47
401.04
359.64
341.66
244.61
229.74
318.30
426.47
526.24
605.28
513.61
313.23
365.70
456.56
252.21
303.90
431.35
618.46
528.99
573.95
344.06
437.36
454.27
155.70
193.35
2177.68
450.88
419.73
434.98
411.88
442.76
640.62
502.45
349.67
383.06
315.10
260.07
350.26
832.12
388.96
320.21
481.04
570.88
632.18
436.55
207.52
455.71
840.96
1502.83
1946.63
1707.45
828.47
529.18
1680.45
1954.22
1528.66
933.12
383.57
232.48
251.07
258.68
433.34
1546.11
752.66
659.94
326.54
386.76
347.63
146.70
247.26
400.02
341.62
363.76
315.75
271.74
499.59
315.36
413.77
565.01
645.60
555.02
499.97
400.19
207.41
191.07
317.06
210.35
318.49
473.52
383.07
675.28
507.50
368.61
573.18
576.20
468.25
493.55
388.08
360.73
548.96
2191.74
561.24
556.45
555.34
536.77
417.53
338.53
329.88
449.43
372.74
346.77
353.66
374.48
794.69
432.20
447.57
266.66
401.53
285.66
362.65
474.81
473.43
359.13
284.15
313.78
418.67
594.70
243.59
444.82
1033.30
1047.82
379.87
415.43
617.56
599.14
311.98
614.20
1130.89
2157.98
230.15
452.84
511.09
391.18
656.68
821.58
865.25
1137.84
654.82
332.21
990.78
2201.98
605.73
271.44
304.99
370.66
564.98
560.33
428.90
341.22
335.50
439.93
553.74
584.97
777.30
663.44
485.24
437.46
247.54
258.34
313.08
344.51
460.00
619.01
693.01
686.17
531.21
584.60
554.56
428.32
480.75
363.25
366.23
429.61
172.39
436.57
326.82
239.66
344.88
2267.34
291.09
213.53
298.61
533.40
528.29
428.69
233.23
358.98
382.92
491.52
233.57
472.57
763.01
196.69
205.23
357.06
364.51
501.79
456.94
328.99
348.75
516.04
533.88
674.36
660.57
893.69
666.31
444.61
432.39
314.36
338.71
471.62
503.85
440.45
401.05
345.40
408.10
2034.46
459.72
404.86
381.28
389.13
238.95
157.18
197.55
277.01
431.39
542.53
408.26
302.75
876.01
502.51
556.68
719.62
700.37
468.94
272.04
331.58
374.09
320.01
364.97
393.24
355.80
576.08
502.72
479.41
421.83
314.02
565.83
806.20
813.42
804.60
669.60
332.10
202.03
328.01
150.53
262.10
301.81
311.76
413.28
264.10
311.63
333.89
335.08
449.47
482.75
376.37
2188.77
258.39
429.85
246.57
479.28
655.75
701.53
794.58
591.87
578.98
483.89
281.26
448.07
691.05
278.42
534.31
624.14
864.61
825.72
732.52
889.43
828.37
616.64
572.09
362.34
1994.73
671.89
702.84
579.73
359.61
948.24
1144.25
1284.87
662.82
511.87
618.81
618.69
2251.21
212.95
342.70
352.28
339.70
403.01
432.77
286.44
362.19
414.07
474.99
421.49
374.55
747.34
368.28
507.43
408.39
283.20
404.04
420.42
389.20
481.56
369.71
390.02
588.84
442.68
596.46
555.83
442.15
266.61
267.62
231.03
259.93
311.80
433.79
624.09
713.53
888.65
684.18
889.69
1009.76
1026.43
528.96
437.61
281.11
300.68
298.31
413.50
416.18
272.87
337.91
462.66
326.34
602.82
1230.43
1494.77
935.69
515.21
388.93
723.26
886.34
1077.99
906.94
482.18
316.71
432.77
310.76
363.11
480.58
693.25
898.18
1250.72
1025.14
566.13
362.24
174.50
470.56
472.73
314.37
463.49
505.72
359.03
511.72
596.72
546.47
578.19
334.71
2031.53
454.99
565.45
553.76
414.29
469.58
452.46
295.10
277.82
462.42
534.54
438.75
493.22
972.56
577.12
610.47
378.75
334.55
452.44
351.17
337.63
475.44
332.78
330.60
487.06
178.80
444.61
274.41
391.08
477.88
335.05
467.61
302.40
392.87
424.25
430.08
453.04
435.03
2146.80
520.42
408.47
313.69
413.77
477.59
529.58
312.37
370.15
378.26
389.82
260.76
573.19
702.24
378.92
380.09
569.75
692.69
622.42
491.68
511.34
441.31
263.14
268.99
311.50
412.76
554.76
459.33
349.39
327.63
551.63
482.60
365.28
497.06
380.90
517.44
514.53
587.24
467.81
455.62
524.16
823.17
644.17
396.78
563.73
591.55
578.87
601.84
403.08
470.43
263.54
1214.13
558.05
618.01
630.43
588.48
475.60
541.90
421.16
472.16
436.69
263.99
343.27
350.16
554.50
841.54
1583.82
1788.88
1509.71
602.55
567.03
1091.83
1733.45
1466.19
1039.61
302.83
404.28
421.90
476.84
816.04
876.81
1023.75
703.25
279.92
418.47
669.08
731.62
497.51
301.59
452.03
437.77
578.46
719.91
1429.36
1829.72
1695.83
681.03
465.76
1227.14
1348.24
846.07
239.30
381.05
601.90
683.98
588.48
407.88
361.13
296.34
358.10
646.16
429.36
1637.10
287.46
467.22
310.27
413.47
769.70
1185.76
1678.39
1516.15
622.51
883.60
1374.10
1939.70
1240.11
822.52
309.43
161.25
328.13
471.53
458.28
361.62
409.84
530.29
471.52
1631.97
436.53
526.77
564.91
514.70
549.40
691.64
707.17
696.92
649.89
548.98
413.20
341.20
747.69
516.74
301.30
637.80
749.25
659.40
295.16
333.08
522.44
578.58
656.34
578.57
583.22
531.49
360.52
337.53
544.73
306.13
342.40
380.18
228.28
377.38
286.72
322.39
359.54
1908.04
388.47
514.12
590.38
747.86
863.78
597.80
357.57
419.27
198.14
362.55
586.21
694.95
1246.08
671.54
528.93
362.20
364.59
323.98
168.56
320.76
252.44
286.89
320.28
409.69
352.14
502.97
406.10
202.63
262.27
394.60
476.61
494.88
373.51
434.02
426.32
440.52
360.69
1983.94
495.90
395.96
373.96
603.62
562.15
477.55
900.36
825.38
1042.18
765.24
361.65
2767.89
1164.74
1183.80
906.99
257.13
382.00
486.25
530.09
412.20
482.08
381.32
503.84
1827.74
499.93
537.42
539.39
530.61
417.91
438.73
239.88
374.02
527.87
915.02
1343.69
1925.34
1786.79
866.74
341.78
1067.09
1642.08
1267.47
997.38
441.73
248.75
253.46
228.49
1514.96
428.27
424.20
437.51
341.56
448.09
452.75
503.66
583.12
734.81
338.77
260.21
182.45
515.76
436.13
254.14
279.11
332.32
314.80
310.86
282.89
446.80
580.41
690.09
786.00
795.72
668.80
492.60
376.47
445.77
396.99
350.87
159.65
285.20
361.37
398.12
167.57
268.35
1753.06
583.13
693.57
654.81
551.08
811.02
1060.37
869.67
553.53
262.70
425.47
571.14
387.46
343.26
313.44
328.06
375.35
544.54
476.25
353.87
342.68
353.37
372.55
462.76
477.13
1832.12
323.36
520.83
529.48
361.70
483.52
430.82
510.63
568.04
461.72
311.57
203.08
296.92
793.26
180.79
292.00
451.48
543.18
572.57
433.14
397.91
439.14
580.25
491.91
360.24
398.00
612.47
279.38
282.68
246.70
315.86
476.75
598.80
961.73
934.45
539.57
334.65
231.96
1286.58
469.44
373.94
295.42
731.48
1095.64
581.45
456.50
314.22
529.17
819.39
561.00
302.26
488.09
538.51
529.23
420.52
411.71
410.09
373.11
343.53
433.49
245.03
255.04
271.63
1666.46
396.49
454.13
500.53
569.03
726.43
1223.91
2292.68
2661.53
1884.48
550.22
784.36
2604.25
2579.03
2147.27
1382.35
393.15
338.16
403.82
528.89
375.71
330.48
408.33
555.27
698.73
447.11
487.79
446.53
486.39
576.36
632.00
592.99
639.09
569.61
528.85
301.65
310.34
498.63
236.55
353.93
490.79
652.03
657.43
712.24
431.67
251.10
256.52
364.95
266.09
253.19
477.65
350.45
397.52
514.57
446.89
604.65
576.71
535.26
537.58
457.27
269.57
357.12
1611.97
939.65
987.16
611.53
432.51
365.23
168.10
227.22
532.02
596.35
304.73
383.32
383.27
359.42
283.11
305.02
202.74
452.70
459.64
542.16
830.97
1211.23
1443.94
1341.53
960.57
641.91
748.74
1044.63
1131.66
666.46
308.40
678.08
881.12
1291.81
1147.95
523.65
2394.85
1635.54
1737.43
910.76
326.35
456.39
423.15
410.45
422.28
375.74
325.01
399.95
1177.35
481.87
451.17
423.85
416.77
323.77
515.54
459.08
518.22
355.32
483.46
469.33
493.22
642.53
431.72
530.72
353.34
372.42
409.14
315.45
674.24
263.62
480.90
598.21
555.42
514.88
636.94
721.42
594.58
534.94
298.86
254.63
333.86
204.78
439.96
771.17
785.59
633.31
1517.21
276.10
370.31
325.52
399.53
415.99
185.39
317.56
306.43
263.31
360.77
460.78
395.08
871.68
583.25
341.15
255.59
249.39
415.69
389.25
396.27
331.20
256.78
408.37
500.30
496.93
524.05
441.13
427.36
233.80
399.61
333.69
384.01
580.29
647.47
455.59
409.79
522.36
1726.22
314.33
186.44
258.27
290.34
270.81
422.22
212.01
297.27
489.79
338.85
291.01
350.76
690.31
514.84
424.59
595.06
639.27
535.46
362.37
371.84
274.05
297.03
536.66
398.44
332.04
784.35
729.77
617.26
376.39
448.47
245.97
293.10
367.02
472.56
392.81
435.29
335.86
308.81
351.36
419.63
364.15
423.23
393.09
446.97
535.28
375.89
335.91
162.11
419.54
766.65
1824.34
777.13
889.55
723.39
636.75
419.38
468.65
422.60
689.30
1164.00
1374.57
705.58
230.41
428.35
764.83
1257.59
1170.55
550.55
248.56
597.21
429.55
390.92
452.08
303.04
281.13
796.43
356.45
481.84
702.75
642.02
404.57
468.87
251.59
511.95
574.51
360.70
98.21
520.72
604.15
314.40
604.27
408.50
239.86
443.83
730.67
494.52
448.77
613.68
551.12
661.08
671.31
895.09
611.76
486.65
354.63
442.59
762.52
297.53
395.45
276.70
284.80
281.82
398.00
1425.99
680.98
817.30
681.20
271.81
487.89
554.00
366.61
470.49
551.35
508.03
445.51
357.98
750.22
560.64
378.55
222.12
453.73
472.77
577.49
355.85
358.91
516.83
547.37
545.90
448.02
353.54
335.46
270.33
283.04
461.21
445.64
296.10
333.06
182.30
311.13
350.24
410.57
1822.04
816.23
749.13
634.74
468.49
336.59
371.64
493.81
483.93
286.26
424.94
423.34
496.77
876.34
722.96
593.15
591.32
415.89
311.04
214.63
384.38
421.56
606.10
539.23
473.58
491.68
427.92
533.16
454.37
446.66
262.26
250.99
464.91
811.37
473.62
328.14
383.37
685.20
1867.96
1279.45
1702.18
1926.73
1442.89
758.79
239.09
1098.74
1680.36
1270.15
836.70
473.39
255.57
201.99
309.71
465.44
458.70
573.45
412.33
506.92
456.13
512.97
362.74
483.77
1472.16
553.82
723.51
723.88
788.16
546.65
511.31
396.83
378.28
240.56
252.71
694.82
1010.67
1152.63
269.92
432.32
364.06
479.22
566.45
609.30
570.56
542.03
375.37
252.71
127.25
1339.35
342.07
298.29
197.74
308.01
654.59
777.72
688.45
383.85
222.97
387.46
653.38
557.23
859.55
484.17
346.59
229.39
213.27
247.03
276.13
161.57
316.93
474.30
509.47
551.10
584.08
558.85
412.56
528.34
422.52
474.83
371.16
430.23
631.46
684.99
607.47
314.11
387.56
1724.69
528.83
462.60
305.27
382.09
319.40
264.27
543.49
516.30
495.50
296.37
371.36
381.29
722.08
380.17
313.64
509.40
528.04
666.90
505.29
528.63
451.03
440.39
563.19
516.11
705.51
887.27
352.08
230.01
385.50
402.71
532.59
263.97
364.48
300.98
375.80
265.05
368.06
287.08
473.99
702.76
695.93
507.57
341.96
350.80
322.62
637.01
595.90
497.78
317.56
455.41
1276.96
611.64
558.43
414.11
275.17
509.80
734.49
506.42
300.22
534.87
512.46
461.37
285.79
608.82
425.13
780.77
961.90
913.14
824.23
699.60
330.24
339.46
275.64
384.40
543.87
1560.41
341.31
560.28
960.26
893.11
368.55
271.31
459.05
628.53
592.58
312.86
189.45
327.64
358.90
299.17
408.13
327.54
439.38
461.10
586.92
669.70
553.18
468.05
475.43
398.93
1233.59
419.26
265.00
554.65
492.23
579.01
516.77
628.34
661.10
515.23
463.36
356.52
291.58
745.81
174.55
255.02
237.74
348.99
86.81
405.69
518.87
454.87
589.43
559.40
476.43
526.37
576.33
295.28
211.98
263.28
368.22
232.55
299.71
355.46
190.20
268.70
260.81
368.03
308.38
397.44
604.71
646.09
719.42
601.75
205.15
818.55
557.66
382.41
761.29
834.40
497.33
1710.70
282.95
553.01
667.93
643.60
272.02
242.76
283.04
312.51
489.15
789.40
615.02
743.67
789.00
704.33
474.25
353.60
400.24
293.04
499.52
543.15
582.83
399.66
374.52
801.41
958.99
1083.64
487.08
215.60
199.33
319.04
672.88
469.46
328.90
594.28
708.64
660.00
610.38
851.16
420.37
609.68
356.32
227.38
279.13
391.55
574.59
591.85
241.97
340.87
416.43
475.40
600.93
534.82
345.46
337.15
343.30
248.68
151.15
396.60
398.18
368.16
359.57
305.73
1107.56
296.40
242.61
419.64
144.08
331.99
559.89
435.22
533.64
570.87
688.88
703.87
805.28
1129.69
329.28
316.52
401.01
406.49
548.03
646.36
458.84
415.67
313.86
274.59
691.25
340.65
448.47
622.57
652.32
830.65
700.30
588.98
368.79
289.29
779.18
1287.55
1032.61
502.86
994.52
913.42
957.10
557.37
319.17
365.01
395.79
348.25
126.66
292.58
256.46
227.17
1173.24
469.47
480.28
528.85
381.03
369.63
364.63
516.36
403.09
413.52
372.04
392.48
316.93
523.47
324.29
425.81
479.01
534.75
576.04
669.04
575.17
763.37
610.71
583.04
499.11
538.82
485.88
277.42
301.21
246.57
277.12
203.35
344.78
547.24
560.83
686.16
773.07
547.26
1208.64
325.06
473.31
554.75
247.80
430.22
509.06
580.13
401.32
561.48
419.07
557.41
707.24
1228.02
891.10
767.64
287.48
281.78
431.85
260.10
304.99
467.84
498.50
605.44
565.96
1250.48
465.74
461.58
474.45
401.21
353.34
410.22
449.20
663.83
622.27
702.53
491.74
252.10
718.94
300.51
311.24
300.60
365.50
361.06
484.79
525.86
741.93
725.02
949.18
816.01
166.56
304.81
310.34
274.55
420.15
589.65
793.39
907.76
577.74
392.96
547.39
507.42
300.93
1524.44
264.27
222.39
55.13
290.69
375.73
412.63
337.97
500.10
390.08
442.90
332.08
424.20
714.58
715.12
770.77
635.11
629.90
593.22
542.13
373.22
348.75
363.81
548.86
542.17
547.73
565.69
121.96
367.17
348.46
169.14
359.86
425.92
373.85
277.00
273.26
290.54
503.89
1054.03
484.12
568.78
527.08
516.21
218.40
341.14
403.49
395.61
364.55
588.69
745.43
703.28
1283.96
602.24
486.55
502.17
350.92
276.70
369.93
126.61
199.02
382.11
301.49
490.43
537.95
563.07
462.83
420.68
295.68
489.15
336.83
401.70
355.79
626.22
467.96
422.89
269.12
2788.10
485.77
522.55
727.74
788.46
833.14
833.40
588.72
252.70
272.42
135.53
234.30
285.46
752.22
419.94
409.72
664.36
763.32
709.75
649.22
496.63
183.85
178.79
464.77
490.04
512.42
784.21
312.62
223.81
247.57
280.53
344.51
487.00
385.08
244.87
205.35
261.59
258.61
337.20
538.22
609.03
752.19
680.56
438.54
337.61
313.97
366.56
348.62
397.92
149.13
223.65
1017.15
355.60
536.94
597.62
509.01
592.99
469.09
429.77
463.68
231.98
176.57
216.38
400.20
958.19
459.01
523.85
478.20
722.17
924.45
1381.64
1124.30
909.15
387.35
319.06
669.58
1147.97
175.10
258.63
259.82
168.73
606.08
745.05
960.15
1214.82
968.79
466.18
276.19
1112.61
392.83
576.59
927.22
877.33
326.99
312.32
458.97
532.59
321.10
589.72
524.10
1361.55
362.54
407.89
564.46
470.39
302.43
327.37
351.57
563.60
771.93
556.17
576.36
607.46
569.07
279.57
406.42
391.82
453.88
320.17
333.07
301.08
242.07
355.62
399.39
419.81
483.78
688.36
703.34
704.55
638.73
390.34
468.36
207.73
255.59
365.97
283.78
483.13
208.34
2687.52
432.10
459.88
542.41
509.64
416.03
447.30
365.85
281.40
308.47
348.92
383.17
466.84
848.99
473.71
436.77
350.99
469.61
230.86
348.73
412.29
559.64
418.57
389.11
325.92
245.94
353.11
296.84
352.33
341.82
347.71
340.83
385.59
264.39
277.54
338.02
542.55
505.91
2700.99
469.78
530.53
663.91
699.13
638.97
736.00
695.06
456.24
259.15
405.85
773.84
586.35
961.62
353.59
299.68
466.22
410.64
608.82
800.85
909.37
782.86
611.11
321.26
786.01
577.56
275.11
354.19
520.98
741.03
815.95
877.61
736.27
620.34
589.14
336.52
282.77
352.85
1805.36
319.37
475.29
462.39
369.41
405.44
282.45
283.16
242.94
421.95
614.03
734.44
1123.16
1306.55
1027.18
455.38
308.44
716.04
477.23
157.86
379.95
564.93
724.92
657.44
733.66
1013.41
342.47
472.82
649.05
304.70
484.92
1018.86
480.16
330.58
557.98
703.42
657.16
1151.38
312.95
355.69
260.34
231.99
353.41
511.04
533.74
416.59
359.63
253.50
449.40
71.87
612.38
168.95
308.80
181.96
430.43
733.46
504.21
640.81
414.54
277.05
290.37
331.62
347.77
707.08
573.77
669.86
813.30
873.05
896.98
586.00
331.62
290.93
308.50
313.15
276.69
464.93
574.87
504.82
419.02
463.05
243.85
254.16
428.23
701.44
578.01
472.17
482.36
343.34
2941.38
695.15
523.50
622.65
480.38
260.72
257.34
360.04
427.21
488.66
795.29
797.86
685.51
985.39
419.63
146.09
450.10
402.20
338.74
691.53
538.74
568.13
639.76
618.11
516.38
366.37
297.62
378.66
383.45
310.32
369.44
435.01
520.34
690.85
730.87
825.29
712.27
752.56
2729.22
435.20
388.47
537.65
748.10
675.35
266.76
333.02
322.98
525.14
638.43
790.64
421.71
884.24
516.34
463.22
378.66
344.71
403.01
352.40
516.33
517.04
453.33
602.97
683.58
382.90
541.96
369.14
234.85
272.85
388.10
388.31
418.19
318.76
381.86
433.93
524.76
602.01
2704.09
421.90
519.38
471.67
403.63
385.71
449.24
536.31
514.73
334.56
362.30
516.50
436.28
986.92
495.18
304.76
188.38
326.83
374.72
233.60
371.30
526.38
523.68
557.91
379.89
330.13
243.12
290.79
421.22
461.48
369.54
369.75
203.66
345.50
319.23
262.33
310.34
314.52
2687.47
618.10
658.91
501.76
581.02
497.90
553.21
399.87
557.57
606.90
606.09
469.29
211.21
718.25
336.61
309.66
482.08
545.65
667.87
886.58
994.77
841.14
655.04
361.02
232.12
1068.20
248.62
245.61
322.56
284.92
269.61
252.41
229.33
400.56
251.62
452.57
379.44
429.30
631.71
345.57
210.57
205.68
300.74
539.78
475.21
408.46
372.54
624.74
895.67
1803.82
2338.77
2369.94
1357.61
806.07
2430.83
2905.76
2612.33
1399.94
389.55
372.40
517.70
683.00
1018.87
661.96
822.30
662.98
291.62
336.98
304.65
310.75
290.11
491.11
460.18
390.96
2624.22
522.76
739.03
713.20
843.98
1037.75
534.14
409.51
653.60
567.91
270.29
356.15
422.01
679.51
581.40
572.37
459.42
320.93
474.52
260.76
282.43
434.25
509.46
509.64
465.90
1002.75
495.03
426.17
608.74
570.95
837.94
901.90
881.30
700.39
721.75
651.53
583.95
286.31
622.30
229.55
408.79
658.27
580.05
564.70
295.13
291.87
347.96
390.73
369.18
495.82
295.08
301.85
434.70
278.15
399.49
481.11
648.10
667.46
643.69
570.71
531.12
411.13
440.87
1070.61
235.30
199.93
263.64
374.49
355.57
566.14
660.63
656.98
480.69
350.15
255.79
320.15
677.93
393.22
395.30
606.82
457.60
324.27
290.46
354.42
559.68
630.70
461.72
454.56
437.23
801.57
593.75
333.34
635.66
947.38
1221.07
1203.15
625.25
242.99
961.38
1131.70
424.69
458.66
380.73
328.42
371.75
602.41
859.54
233.37
408.13
471.12
849.19
855.92
830.14
1795.46
348.36
288.93
416.62
573.96
663.79
624.86
822.95
610.24
308.00
320.52
405.11
225.81
624.74
981.06
582.08
266.65
335.12
241.85
282.31
394.62
961.51
809.72
535.78
224.58
670.38
291.19
348.03
486.22
533.67
528.51
328.40
570.58
822.34
829.49
494.78
219.97
258.71
531.84
366.28
455.44
504.12
364.13
335.36
409.87
479.45
381.34
385.69
336.03
339.11
2566.68
440.51
382.44
450.87
599.35
592.54
348.39
402.63
482.45
604.00
476.39
297.24
261.19
690.36
417.63
228.44
292.88
208.64
331.59
357.38
242.35
264.58
308.86
479.29
536.65
797.65
1332.37
1205.50
677.50
655.25
770.81
1225.06
1053.38
403.55
854.34
1271.18
1289.17
2205.49
533.08
693.17
1201.92
2068.46
1942.24
1179.84
426.84
632.87
1767.91
2842.56
2819.68
1742.75
573.99
577.23
979.67
625.44
615.06
795.41
1100.99
875.40
277.33
778.06
2941.64
311.82
241.97
305.06
383.91
394.90
438.97
648.00
615.37
685.78
805.37
536.50
582.97
961.88
490.59
286.15
279.13
466.99
515.20
414.56
459.03
502.61
409.68
372.96
301.40
307.31
472.34
760.82
322.68
430.34
693.09
1105.55
1343.57
1316.50
810.17
560.79
574.96
706.63
690.69
281.31
375.82
482.41
573.99
744.01
256.40
263.32
346.82
330.88
333.81
365.24
366.38
491.24
576.18
509.43
460.56
587.28
759.13
929.16
723.17
410.66
418.13
505.40
233.95
1504.94
289.63
210.67
254.27
385.09
758.18
535.06
210.15
361.30
720.64
1203.78
1677.84
1257.52
404.37
701.70
281.88
520.09
715.61
448.38
188.82
478.81
577.94
1018.33
2017.46
1488.46
494.59
1613.41
2839.52
2525.75
537.25
1105.72
2041.81
2016.17
2447.81
1695.10
740.49
694.34
1122.72
1668.43
1098.31
517.45
303.08
336.64
222.21
563.87
541.25
246.39
205.33
1192.59
941.04
889.51
1168.81
1214.35
1072.37
1301.60
922.27
294.45
500.42
868.83
1451.91
668.39
199.87
414.60
225.00
275.91
381.32
1043.74
886.68
545.17
630.93
460.29
769.70
363.27
320.10
314.90
406.35
380.65
742.32
1377.93
1457.03
1757.35
2192.89
3085.37
2702.45
1286.45
492.60
2553.26
2763.33
1437.83
288.54
855.49
576.45
421.63
636.29
497.31
323.18
442.86
579.43
806.58
915.00
565.23
306.26
1149.62
1312.62
1438.49
889.71
439.60
903.85
832.17
346.55
271.85
591.03
663.76
413.64
239.93
335.37
244.87
149.89
282.22
797.13
468.88
468.41
697.01
477.01
622.49
630.14
966.31
1183.51
627.91
437.25
386.17
2393.36
878.60
1044.29
823.62
385.23
1168.62
1099.42
766.64
323.13
855.84
1633.59
1626.14
1016.22
661.18
391.99
1029.23
1193.63
806.69
230.33
313.25
512.57
329.64
191.74
352.31
640.02
288.30
393.62
442.02
311.30
778.72
502.70
334.33
574.60
579.43
405.52
269.91
354.10
402.73
124.94
329.51
242.20
309.65
545.99
812.08
884.20
799.38
564.86
341.82
299.53
1529.79
579.54
600.73
580.46
612.46
731.52
663.55
440.82
268.66
428.22
826.18
446.23
264.62
814.55
1107.73
2225.47
3195.13
1581.69
369.82
546.70
649.66
317.67
673.60
910.84
478.38
571.93
1181.23
1637.06
1464.11
766.23
529.77
994.39
563.66
235.67
263.98
453.09
350.81
603.55
661.54
737.44
846.18
1043.63
1008.35
426.50
357.47
559.38
710.63
435.33
243.02
1492.43
260.22
490.44
635.87
806.64
498.73
709.61
1310.10
337.89
548.43
416.27
459.60
371.89
426.93
570.04
655.92
922.91
777.89
1203.82
1669.29
847.96
258.41
455.83
188.18
401.31
803.97
1072.69
750.49
656.33
348.20
312.75
333.65
881.97
2124.49
1589.36
1106.00
425.64
1149.26
1371.64
1269.95
1404.09
1260.45
778.10
399.46
372.57
297.24
666.04
1346.18
3434.87
1218.96
517.55
655.75
756.66
252.73
365.34
276.83
301.51
435.93
553.91
737.98
1008.83
1541.88
1712.38
1220.37
320.46
717.64
335.75
416.54
345.74
494.09
255.57
406.02
271.09
508.27
342.79
455.46
404.39
478.54
382.05
431.77
1314.57
633.27
470.37
742.09
670.97
1625.02
576.06
903.25
759.99
465.77
318.32
324.56
297.92
748.66
686.22
399.14
1192.18
945.96
402.19
397.10
447.70
432.48
931.34
1114.81
463.01
358.97
258.01
325.97
437.34
478.43
506.76
368.77
414.43
829.95
1497.18
1274.33
786.72
451.35
166.07
731.99
545.50
535.32
798.15
516.90
387.98
413.32
647.63
1107.27
994.80
422.85
364.33
329.40
322.10
457.91
2404.55
415.23
330.78
379.72
203.20
336.33
559.53
552.87
442.09
300.34
335.91
425.87
706.72
1283.67
1113.82
854.25
656.92
512.51
361.81
504.54
1017.66
1906.59
2479.34
3461.92
3412.30
2011.87
287.81
1404.09
3519.72
3506.43
3392.23
2910.75
1381.53
369.36
250.86
405.59
912.03
668.15
310.34
345.52
422.18
319.17
539.31
916.38
1229.91
705.26
644.65
542.35
2530.03
328.44
920.15
1174.52
603.09
323.63
950.19
673.94
246.50
548.50
1404.85
1738.94
1668.55
907.86
424.27
634.26
336.14
727.55
1216.82
907.48
406.08
581.57
650.00
415.67
1064.60
905.82
563.74
429.19
277.61
406.85
630.97
931.56
592.96
465.11
571.81
291.41
1647.51
292.75
200.92
459.78
325.74
233.72
564.35
1277.09
895.50
528.45
389.31
630.55
2358.29
1301.72
757.33
497.60
1263.90
904.29
344.65
981.77
930.14
607.12
530.23
626.29
1015.31
1052.19
841.73
460.11
269.60
400.67
536.78
395.28
341.98
351.74
353.26
552.68
3073.06
759.51
672.12
353.02
297.83
353.10
521.76
608.98
369.20
455.64
603.61
589.68
562.86
1105.34
477.38
392.35
310.85
619.71
695.85
495.56
277.99
643.80
305.25
366.55
424.42
436.90
441.30
246.38
557.56
555.18
295.71
295.28
472.18
571.85
350.73
418.10
578.98
601.07
2268.28
690.47
537.23
827.26
1332.09
2036.90
1204.41
1023.18
1103.75
994.69
379.94
1070.34
2137.69
2474.00
1931.03
863.12
217.20
483.81
725.65
334.27
596.87
953.41
590.93
549.66
668.43
519.74
516.93
229.93
421.06
453.59
427.77
305.25
392.97
471.66
343.13
942.20
2588.96
1112.16
313.20
218.78
416.50
1191.34
1491.13
1358.68
1509.40
1328.78
494.40
1347.36
2140.98
1665.46
1794.26
1208.53
791.61
390.13
651.74
975.13
1376.17
765.70
391.10
677.69
550.96
864.92
666.57
398.13
527.04
787.23
1047.86
1503.98
1749.44
1539.80
1120.02
1292.12
692.14
769.24
475.54
951.88
324.66
653.03
1267.76
1276.05
1243.17
1151.42
667.14
332.01
304.31
533.35
1195.07
1421.68
1347.08
846.67
512.14
509.83
456.97
572.31
3165.11
245.39
254.98
260.98
313.15
227.59
511.74
858.11
861.11
415.11
608.38
1107.91
610.24
330.96
231.67
493.87
653.91
692.33
670.61
427.62
298.45
397.82
521.08
826.83
972.91
1452.45
794.60
1080.83
1208.62
1500.68
1387.73
1164.35
620.67
610.39
668.14
313.55
785.19
928.13
820.73
658.76
1366.79
1427.19
612.03
439.60
1246.64
1464.26
1249.45
855.05
2874.97
290.75
265.32
302.08
381.28
350.89
541.51
972.12
1252.96
1125.04
572.15
289.50
1933.70
274.59
425.82
342.36
267.34
511.89
1088.64
1189.87
495.92
480.35
346.26
563.60
2217.90
1173.44
1483.65
941.90
662.66
392.67
457.97
715.27
821.91
791.60
1064.11
604.55
860.04
591.99
394.41
303.72
350.65
480.53
510.35
412.65
432.27
387.57
368.91
527.88
620.45
700.36
473.29
554.34
585.94
598.76
255.15
308.74
285.13
270.72
358.93
387.30
529.15
2218.54
263.48
294.02
349.60
459.03
410.97
310.54
629.05
641.65
448.94
475.89
237.98
382.12
703.93
600.72
1182.12
787.96
245.57
552.54
571.59
1152.15
1740.42
1576.13
980.53
475.91
655.89
286.72
950.29
1416.15
1403.03
1168.85
305.61
1205.61
1866.81
2125.26
2090.04
1633.26
894.52
514.08
276.00
484.39
1032.50
1775.91
1610.18
1686.42
1317.12
616.20
564.68
947.89
311.36
608.76
1166.03
1518.86
1159.92
473.64
1053.30
2162.94
1687.60
688.20
2369.29
1004.70
1062.28
1565.81
2249.53
1682.56
755.18
371.98
701.40
644.71
633.48
1689.83
1995.64
506.28
1218.06
2010.71
1868.38
1010.08
559.11
949.19
754.08
1070.64
845.47
1236.14
431.90
470.10
403.26
237.45
272.09
287.46
261.69
535.00
454.91
431.23
609.05
2220.89
927.47
771.29
453.98
381.34
401.03
659.77
772.26
357.66
1014.76
1059.72
269.89
1065.07
1389.79
1748.28
1721.05
1537.74
1179.40
757.16
1076.32
1500.53
1453.26
1245.36
570.38
1042.61
1851.87
2041.20
1506.62
446.48
324.40
209.32
551.77
574.57
742.50
628.92
1806.18
340.76
467.98
672.23
709.34
1349.01
2174.34
1651.20
650.86
889.12
1499.98
1854.91
1814.09
315.65
934.82
1883.02
1894.79
911.12
368.39
1125.25
1325.44
954.98
501.53
1172.75
499.56
633.52
678.08
550.76
254.34
195.18
348.37
721.61
746.81
682.58
392.31
315.98
508.92
740.83
910.26
865.54
300.52
307.91
513.46
1051.43
1428.49
1515.15
1103.66
416.62
1118.60
938.27
296.16
524.68
985.32
1109.83
1473.64
1532.89
947.96
567.01
1000.55
1996.11
1700.20
597.67
1057.53
1528.20
1795.88
621.87
639.31
944.58
373.44
510.60
2324.64
1381.93
1166.77
423.95
355.50
412.74
696.03
452.58
387.71
1400.40
1852.78
731.75
1273.98
500.47
398.41
483.54
442.00
531.18
680.45
773.11
1019.40
1080.33
1011.49
946.52
1180.63
457.45
416.89
260.07
329.78
498.55
273.08
452.60
480.08
584.06
412.93
451.61
2400.61
911.80
251.33
494.07
673.93
1190.86
1003.58
498.03
479.33
884.69
670.89
338.48
1505.11
798.77
620.22
790.38
603.00
673.36
1818.66
2158.59
849.22
455.83
471.96
691.15
1267.51
452.08
367.45
258.95
257.32
316.67
527.30
148.30
714.46
915.87
350.38
550.07
2100.69
295.29
573.44
1335.97
1128.56
401.74
771.12
704.43
927.50
764.89
325.66
548.69
274.51
1210.59
2242.84
2636.50
1345.30
887.31
1533.51
742.07
457.04
599.16
1480.58
2425.81
1325.22
291.28
262.47
340.32
454.89
958.02
1007.76
1009.63
479.39
476.75
647.80
438.45
832.63
310.70
494.28
773.79
912.36
571.11
286.64
762.21
811.08
284.99
757.19
838.28
1575.64
496.51
604.08
780.73
448.79
382.19
220.05
512.30
673.63
1528.09
404.80
682.89
1968.76
1047.17
575.22
460.16
538.60
554.64
413.62
314.54
608.71
541.25
370.34
946.45
1453.12
1260.26
933.81
467.59
755.82
457.26
378.06
574.70
942.17
1642.66
732.24
316.79
2024.70
615.91
433.88
217.66
340.90
582.97
457.89
214.47
279.73
485.77
644.10
644.27
1492.56
1179.78
372.34
366.94
216.76
593.12
481.35
270.06
305.65
509.77
645.05
918.58
594.17
1663.48
353.91
560.27
560.05
553.79
289.46
347.96
290.12
491.16
607.69
352.90
929.52
1433.23
1218.14
585.44
841.56
1403.63
491.25
497.71
714.21
609.70
403.13
409.01
1136.71
1676.97
1851.66
1313.12
753.51
501.75
2441.21
2029.24
386.07
686.28
844.50
1073.79
499.20
1159.94
802.58
336.65
738.27
501.90
1366.29
2576.10
2523.86
1832.32
503.74
1492.04
2081.04
2459.36
1792.14
291.23
883.31
1100.92
776.22
305.65
272.33
565.41
261.21
515.63
395.99
501.44
605.28
230.08
1194.47
1352.51
343.42
352.03
383.00
768.43
817.61
728.92
305.53
753.39
1082.11
694.12
382.68
550.59
774.00
1119.95
2293.57
2632.95
1702.56
714.51
651.14
2160.35
3484.48
2804.63
1195.19
485.68
1521.52
1598.91
617.55
1002.68
870.19
510.17
1247.17
592.02
354.42
517.14
245.21
277.89
519.40
413.55
306.43
353.78
554.90
591.53
2124.91
739.58
318.98
804.86
448.21
554.06
633.54
733.12
348.42
374.52
315.18
234.66
506.65
923.18
1175.77
1272.30
1063.86
1047.72
675.32
397.26
423.45
235.68
368.80
292.53
274.27
687.03
428.41
874.07
835.25
360.67
349.78
355.92
961.12
325.39
282.72
644.74
407.72
1177.30
454.32
550.39
245.48
419.57
630.76
1063.84
639.84
535.98
248.13
719.77
1224.48
747.90
646.76
323.34
1125.04
1091.39
650.32
345.68
423.92
480.79
487.62
415.10
496.68
619.60
950.34
437.76
382.32
490.32
1205.99
1672.83
1113.06
562.86
308.21
785.78
1115.45
757.86
324.18
691.01
1438.14
1956.74
895.88
750.26
1147.33
774.04
463.59
430.94
400.73
592.76
1238.93
1916.77
1775.11
701.90
548.68
889.98
628.79
538.99
400.34
560.60
963.93
1261.97
1244.70
857.35
808.82
520.85
1117.72
1496.52
1810.36
2131.37
1515.73
472.01
327.45
617.98
376.28
347.82
438.29
714.93
485.11
513.63
695.78
844.48
754.42
908.13
724.08
1641.48
670.81
233.52
412.99
606.39
403.58
1192.63
1272.79
732.52
786.40
1060.21
1298.23
1537.02
666.45
573.17
844.33
1335.60
1252.02
884.62
580.57
253.68
386.02
527.40
416.19
1217.24
815.00
337.91
823.93
874.31
646.33
853.57
602.78
580.25
858.06
1108.73
1001.89
1219.60
482.48
380.46
619.01
516.72
1056.80
1222.61
492.04
560.30
1000.91
885.43
640.60
1189.06
1523.34
975.70
668.84
757.33
504.07
637.32
307.33
311.92
585.81
433.49
1810.64
2813.56
1857.79
886.55
464.21
319.62
410.04
674.22
381.37
900.47
1881.12
1282.84
579.47
474.31
387.48
349.50
443.58
1079.46
2305.90
2715.41
2243.77
845.81
289.68
345.67
1744.19
687.09
1353.01
1980.73
2551.30
2063.37
719.91
549.37
1223.10
2582.56
3397.04
2371.56
1513.51
927.84
300.52
442.55
483.18
342.84
383.40
309.06
434.61
303.24
543.31
346.75
821.97
848.61
1337.45
1020.47
675.90
651.04
1129.48
1423.78
826.20
501.10
464.53
554.91
597.95
316.61
328.76
441.57
344.15
300.58
275.97
430.13
277.51
367.83
481.04
360.63
1803.43
314.41
406.01
535.23
515.92
240.42
380.86
406.05
432.02
487.08
597.24
383.69
429.13
779.92
351.49
360.37
311.15
375.91
238.44
349.02
671.15
923.84
792.73
652.12
572.06
326.01
400.31
734.66
742.85
402.49
544.60
678.23
844.28
659.96
804.23
2002.48
1252.18
276.94
1194.43
1086.73
1175.39
541.19
359.20
532.62
1803.46
1546.44
402.26
235.83
276.34
770.43
1374.79
1819.99
1783.72
1312.11
494.16
1750.99
2723.25
2515.01
1878.56
1002.89
505.32
1692.60
1693.38
1210.61
406.90
749.17
510.60
742.42
956.11
1014.20
715.26
593.43
1953.02
524.93
370.16
270.68
678.17
373.52
564.50
302.50
479.43
701.59
207.93
783.59
709.14
741.23
323.27
449.70
669.97
923.67
1262.76
1228.11
727.80
361.97
667.73
515.07
406.66
1308.45
629.50
417.67
637.67
351.76
993.67
1106.85
375.35
600.92
779.92
962.79
1674.33
2410.52
2270.19
1206.24
326.82
1066.85
2134.48
2980.06
3464.47
3510.16
1550.47
307.67
1998.74
796.78
746.77
404.12
490.03
1105.62
2178.02
1981.68
1115.62
476.88
481.40
553.33
992.71
1240.80
1591.72
1243.23
604.30
547.70
334.32
920.30
516.79
746.83
1419.66
988.49
777.37
389.30
912.94
737.89
577.74
552.39
439.36
672.23
918.73
833.24
824.76
633.14
513.39
449.62
800.32
539.43
300.30
641.93
844.99
533.35
430.98
336.19
416.34
1585.07
1761.79
344.67
779.53
1095.97
805.08
459.73
1238.40
1781.11
798.79
412.30
533.80
712.61
1076.36
967.53
1479.83
1899.64
1729.74
676.47
252.28
293.87
244.26
388.55
614.20
260.32
481.41
458.70
480.24
424.70
403.49
269.26
349.63
338.40
380.72
474.43
659.20
713.74
1802.52
436.26
264.58
371.07
315.38
291.60
222.93
468.69
622.99
724.51
1201.56
1222.92
879.59
811.55
503.09
487.83
280.79
270.37
712.49
955.81
874.93
507.21
573.94
521.40
398.84
697.39
238.32
556.03
340.43
437.72
842.29
597.85
653.83
1014.68
1143.38
1135.80
1608.10
2914.48
1420.02
380.55
454.84
798.01
968.86
1332.02
1437.41
1070.07
528.30
274.87
2124.68
276.19
882.59
1305.96
1451.73
1415.95
1218.37
431.67
1728.10
1470.36
1190.92
1176.61
646.00
435.08
557.40
872.56
466.52
406.51
1104.30
2134.96
2593.45
2163.72
1318.96
2666.41
505.55
1164.50
1845.55
1238.26
365.65
1688.23
1992.96
1178.84
584.21
608.42
1878.76
1141.93
1028.19
297.52
471.88
271.42
215.94
451.21
1035.80
1633.81
1447.96
964.18
1202.96
275.36
513.23
740.69
459.85
414.07
1199.94
1942.13
1689.82
691.46
300.55
596.19
1711.27
1373.26
1022.27
628.19
619.59
790.21
1167.64
1455.61
1142.92
994.17
865.72
2703.79
477.57
355.18
454.75
535.39
868.33
1223.84
1266.45
1643.86
1657.46
897.54
417.24
795.43
364.35
913.00
1394.68
478.76
1352.81
1600.26
1886.37
1676.75
1387.30
714.30
804.18
651.49
471.17
267.57
282.01
623.72
546.06
563.14
561.27
653.46
668.54
209.05
1421.85
318.97
227.83
460.97
672.50
453.25
291.70
453.39
215.11
432.04
617.22
633.70
515.00
871.09
294.77
969.84
942.23
373.73
866.51
866.12
750.56
724.39
435.33
333.11
322.58
879.09
617.47
423.94
676.55
659.63
546.18
637.69
752.39
751.82
367.08
720.84
516.22
525.75
860.91
339.94
327.61
721.43
672.04
548.42
522.99
443.04
348.48
861.14
1111.97
1020.50
1752.73
391.56
434.21
423.58
558.00
861.37
907.96
640.83
317.14
493.82
659.95
1097.28
2024.60
1017.62
890.35
1707.83
2588.70
2674.48
2178.34
1016.59
291.17
1358.51
2189.14
1932.90
950.18
572.09
695.89
339.30
403.72
326.41
597.46
766.05
326.94
854.89
2051.61
2431.96
1175.03
269.40
659.49
1357.29
1713.74
959.59
702.84
719.03
343.94
235.05
836.61
1113.31
268.81
989.74
1066.47
1259.74
986.21
641.94
448.71
192.37
282.19
367.30
645.78
1008.59
997.60
1281.50
1465.95
946.23
307.26
1115.28
886.56
708.92
2046.16
2099.29
1596.25
364.47
943.02
1329.55
733.08
371.73
689.49
503.93
468.22
834.41
522.33
468.12
751.44
284.96
293.57
569.06
990.20
1245.84
1136.86
980.70
365.42
439.83
809.37
1063.66
1146.02
470.35
690.90
1209.79
2280.21
1394.74
356.25
460.50
184.80
259.31
358.47
460.54
340.95
385.02
404.94
538.77
544.50
215.67
180.00
489.42
735.33
633.71
517.55
426.01
339.25
616.00
426.26
697.64
817.73
856.37
673.39
590.98
158.15
424.52
770.49
1445.12
1635.86
1797.79
938.15
486.00
558.88
607.59
340.27
245.49
183.02
319.66
357.90
501.75
834.00
2216.49
1409.39
1127.43
706.33
307.78
465.13
554.49
487.42
293.04
301.48
460.22
421.97
1298.03
310.42
439.04
485.62
363.50
299.38
278.77
286.82
517.99
389.85
433.09
306.01
364.02
723.01
535.23
254.70
543.26
440.33
442.53
555.25
214.80
310.06
502.33
654.61
637.54
545.88
344.51
221.67
242.41
257.67
236.47
362.20
373.27
574.46
556.83
532.76
433.73
443.02
1208.98
337.90
435.21
553.02
636.17
606.37
367.39
364.49
121.38
243.12
536.10
647.91
758.40
1305.56
491.97
643.39
321.61
352.46
379.01
350.30
378.16
420.23
253.15
239.47
331.56
376.30
602.13
467.55
577.26
293.77
379.34
275.84
215.00
266.47
341.96
308.72
525.62
357.79
1196.36
544.58
379.03
503.74
570.72
744.36
590.61
260.34
312.58
562.23
962.29
1002.56
1097.56
1143.72
797.75
416.97
285.98
146.18
268.95
579.68
460.67
404.95
263.86
367.74
275.57
805.05
424.12
621.15
809.89
648.25
932.87
1289.27
1105.66
1038.47
276.92
726.93
1061.29
1230.06
327.00
510.88
648.62
696.59
591.55
359.48
439.07
269.24
409.26
586.99
503.41
1890.14
231.15
361.91
686.38
480.60
585.74
579.78
925.51
1547.45
1172.16
697.81
304.03
1981.86
736.80
721.63
252.43
631.16
968.11
770.73
501.86
606.28
641.01
653.65
674.36
785.32
949.78
840.11
625.03
340.82
218.90
379.67
656.89
857.46
945.79
777.47
430.52
197.69
586.20
317.03
468.62
459.88
400.38
350.31
354.92
441.11
470.64
383.89
434.00
467.27
803.65
1165.07
1157.37
705.19
578.03
305.71
206.44
223.61
328.35
392.00
336.19
542.25
695.61
1086.60
701.53
517.92
289.39
273.08
294.63
725.57
1057.58
1375.82
1304.39
826.59
530.39
1459.89
1218.36
1029.66
474.39
259.71
386.83
648.96
807.40
488.89
301.32
299.91
291.45
1166.21
406.50
288.81
424.21
545.62
519.44
627.62
737.27
790.04
644.98
491.47
363.95
362.16
549.77
537.08
188.50
183.78
81.64
294.62
310.12
363.17
700.66
602.95
562.92
840.69
1573.89
724.41
562.76
619.40
393.11
241.98
207.74
489.06
823.40
851.82
715.00
580.19
488.45
885.77
323.25
362.85
418.94
472.36
325.06
289.92
269.12
238.74
266.50
258.56
292.81
256.65
527.20
246.44
357.42
349.30
765.48
831.69
813.34
602.75
552.91
596.66
449.19
549.76
1189.70
479.77
248.61
361.43
348.57
230.31
333.00
349.26
423.79
601.98
858.73
1186.46
1274.28
1106.57
1086.31
1200.88
900.77
526.48
505.52
340.82
392.46
355.70
235.46
333.81
400.05
343.67
331.47
326.01
139.36
348.86
249.90
312.19
268.64
298.87
333.34
264.36
380.99
1832.57
704.44
763.03
719.41
355.38
603.50
889.44
562.40
306.21
490.13
475.37
651.94
495.55
878.94
567.95
721.66
1042.76
1220.05
1021.40
738.03
445.88
336.25
282.34
534.70
649.78
711.81
250.41
597.06
929.28
1234.68
1132.61
659.48
760.32
1630.43
332.34
1042.77
2257.02
2588.68
1836.63
437.36
665.65
842.95
560.04
234.42
688.91
883.03
695.17
619.80
635.80
1017.15
455.30
414.65
361.61
293.79
188.22
306.32
348.23
424.69
287.53
337.20
300.09
187.20
446.26
334.39
188.08
473.84
545.73
402.85
262.48
217.97
302.22
168.34
530.96
626.54
1156.57
608.26
617.18
374.83
369.42
389.69
382.54
225.22
274.40
530.99
457.34
444.94
404.22
932.67
497.46
408.49
495.30
302.59
287.95
264.11
347.34
291.84
317.16
316.69
412.10
413.04
502.77
395.23
476.38
464.52
420.87
408.45
311.71
286.53
514.31
530.91
541.28
568.13
1142.87
834.90
1020.51
1427.99
1407.67
865.70
559.72
448.59
673.28
916.80
1103.87
923.22
660.75
221.15
460.04
476.64
454.70
833.80
1254.85
1274.53
538.10
376.36
413.39
230.90
289.87
309.16
174.28
219.58
522.38
406.57
118.55
464.87
572.25
647.15
761.86
725.84
429.77
431.68
356.51
529.94
294.71
472.49
315.82
255.24
628.36
574.01
375.51
709.46
716.19
2695.48
527.21
451.57
611.24
756.88
760.59
629.31
751.71
536.89
553.70
529.11
392.54
382.44
1009.59
722.85
671.55
866.14
585.80
585.19
633.79
665.77
233.30
1089.83
1399.44
570.11
2174.28
820.08
703.46
528.41
373.59
445.81
337.91
430.28
604.23
786.20
408.09
396.49
386.40
649.03
501.77
588.37
891.51
682.26
373.58
310.43
370.51
244.57
279.07
231.46
636.15
580.87
527.50
545.11
358.41
343.76
320.52
295.36
268.49
301.75
255.99
431.56
540.77
531.87
1186.26
404.95
346.21
469.51
427.60
837.93
780.00
872.82
890.74
625.33
661.69
742.09
676.12
1026.61
459.89
433.09
337.53
565.59
775.70
491.13
303.19
135.13
516.71
544.34
310.36
559.57
901.35
614.66
475.56
567.96
531.14
293.88
253.39
296.03
201.97
260.87
498.21
391.07
1107.52
395.94
209.01
185.26
400.95
749.81
1215.33
797.09
368.96
288.28
619.03
554.58
458.60
611.21
394.20
594.68
618.50
199.18
478.10
410.72
513.36
297.02
240.74
333.33
262.00
231.80
328.05
296.54
247.36
229.99
266.85
434.83
330.04
452.21
261.82
369.75
277.02
336.26
1054.57
660.86
700.48
726.05
650.78
465.28
493.52
541.10
509.38
340.15
273.01
413.65
294.71
829.48
503.25
440.65
269.36
351.93
238.37
439.00
518.71
839.80
778.53
478.74
224.47
259.22
519.99
394.92
445.18
541.68
427.64
261.53
216.50
471.26
230.73
471.04
646.24
655.32
795.01
766.20
670.08
858.71
414.04
275.85
421.67
882.01
846.85
381.58
400.22
762.10
953.46
1733.26
628.06
566.62
400.75
333.84
312.52
411.72
257.27
320.80
531.16
591.53
446.97
469.05
319.15
389.98
488.85
860.85
994.41
610.74
317.27
339.80
187.89
477.41
316.96
313.93
1331.46
578.74
701.58
816.05
717.35
813.43
705.37
343.62
646.04
938.27
1188.92
1192.83
988.21
608.01
224.50
927.47
1288.55
947.65
415.90
204.71
359.97
275.67
458.03
581.78
1354.38
359.11
328.85
282.87
268.66
271.36
371.97
637.87
1444.35
1440.78
978.19
527.28
2253.14
799.04
1355.16
1241.49
524.04
207.83
291.03
263.55
289.64
213.23
255.71
323.84
1192.53
332.40
418.62
391.32
402.97
490.13
645.16
743.21
671.67
588.50
474.95
678.40
717.74
903.29
320.29
1146.32
753.73
381.12
1132.99
1201.78
746.71
936.03
1037.33
1074.03
741.71
551.99
237.96
286.10
329.12
128.26
365.54
560.83
360.86
243.54
242.63
211.34
174.77
1467.74
529.06
591.01
140.48
399.36
277.73
296.97
239.12
302.57
389.62
272.10
378.05
371.56
418.67
250.90
475.93
843.18
962.61
1242.79
1329.16
988.13
220.88
537.48
707.37
837.20
1085.71
790.21
563.34
324.92
293.51
467.55
659.24
667.75
783.19
680.59
550.69
467.27
2469.87
460.94
472.42
574.95
715.14
864.59
675.42
302.67
396.03
298.14
378.60
484.17
996.62
1405.82
948.90
1073.40
1238.12
1572.64
597.24
341.49
1193.58
1361.20
1661.67
1525.81
1882.80
456.13
398.17
621.45
692.59
1117.82
832.03
357.68
619.51
982.75
981.76
603.17
242.78
335.76
806.94
1093.88
1042.26
697.39
552.51
300.69
383.38
182.94
317.55
416.38
798.54
215.33
397.28
661.88
1026.10
690.39
511.92
706.09
777.58
917.04
699.86
931.62
1393.17
371.87
310.13
242.97
365.88
298.80
286.74
366.45
322.00
394.34
504.03
613.47
544.19
575.63
223.20
284.00
494.57
906.81
907.90
696.59
917.41
711.75
261.01
329.26
367.08
1399.08
1068.95
848.05
370.50
650.36
1335.36
1252.77
815.79
418.81
516.97
941.46
920.16
1335.99
958.80
374.21
279.34
947.24
1147.68
927.60
581.46
291.48
313.70
367.30
1188.68
783.71
746.89
493.30
304.94
698.67
1187.61
1541.08
945.69
524.24
613.45
438.92
2601.38
714.32
875.23
559.55
414.85
320.17
347.85
468.18
614.39
556.51
358.91
414.55
650.24
1024.82
520.41
346.11
420.41
300.93
375.98
332.36
350.89
362.48
558.57
1125.32
1440.13
2124.71
788.96
433.29
278.72
121.29
159.63
475.53
895.49
971.03
555.05
317.41
279.67
1520.58
435.72
193.52
772.22
1114.19
557.86
496.21
593.78
595.19
499.41
682.13
803.61
895.60
628.64
332.92
476.25
249.44
363.30
537.95
480.79
552.57
679.04
885.21
816.87
1244.54
1950.51
1381.80
2013.81
2054.48
960.27
731.13
602.46
313.45
1005.61
2045.72
1964.40
1214.26
434.51
537.59
480.58
245.80
314.44
435.56
591.81
364.39
415.87
963.97
1844.10
2544.75
2029.93
1033.21
272.84
563.33
684.45
265.00
201.08
219.07
337.37
276.72
226.59
474.86
581.35
590.68
713.14
1163.14
1278.24
1535.16
1747.76
1201.93
576.53
713.45
1560.79
3140.31
842.71
1304.53
623.03
387.28
756.13
907.17
756.62
625.93
718.20
669.03
478.22
2579.49
442.37
812.51
993.91
571.58
331.57
582.31
396.61
422.47
429.38
497.26
656.24
733.06
1069.65
942.33
306.57
361.76
317.00
315.75
334.22
208.14
584.71
1226.23
1622.91
1075.94
789.90
347.93
372.29
859.90
1303.86
1103.19
555.25
345.52
688.23
861.80
279.56
321.08
1541.01
893.64
518.06
875.46
1365.35
1478.95
957.29
185.52
420.28
928.45
1337.33
1320.83
1027.68
465.82
551.59
1098.13
1121.01
384.61
470.90
620.04
1084.14
1219.32
589.60
1224.85
452.31
731.11
639.81
452.35
568.84
702.14
1219.20
1206.39
336.99
258.84
510.17
1494.05
654.65
365.84
378.32
828.91
555.14
462.49
851.03
926.13
557.77
285.39
466.57
3082.96
517.39
237.30
283.86
316.78
480.48
873.09
985.28
873.97
672.91
600.18
450.39
2717.11
219.23
300.97
169.49
573.39
773.34
643.21
302.15
897.18
1767.65
1695.20
1232.01
631.42
750.77
287.19
797.38
838.54
909.86
621.81
105.65
358.37
545.06
1205.67
2008.78
2228.31
519.80
1119.95
2355.06
2403.75
1913.84
996.25
379.83
381.14
323.54
319.62
283.05
783.13
282.02
282.60
310.15
320.37
445.94
471.21
438.28
692.91
826.31
666.65
463.90
229.92
424.88
1148.19
2505.35
3013.68
2764.56
1379.81
411.72
427.73
891.38
1193.72
743.88
1399.25
772.62
344.64
411.34
583.50
615.34
415.64
396.52
1195.80
1059.17
577.97
471.23
1562.00
1298.97
1565.67
1215.64
643.23
648.86
2563.71
2779.27
1556.36
838.12
1109.19
652.55
294.64
356.72
276.10
599.44
644.91
666.49
1154.75
1686.77
2388.98
1747.30
1090.63
355.52
827.93
1517.67
1483.07
1549.78
2182.67
1549.64
644.63
274.42
281.56
709.41
1468.82
1311.70
531.67
325.33
487.91
1154.47
1394.07
1820.47
2503.26
1879.79
1108.60
530.34
2495.64
1538.58
664.41
189.41
602.10
479.06
485.53
765.32
1614.72
1351.06
826.28
347.57
1660.31
539.03
245.03
604.58
606.56
491.04
456.50
490.23
682.18
380.81
347.62
1618.71
1572.93
380.53
1110.80
1317.41
1140.47
568.67
315.08
654.25
1244.98
975.39
450.99
387.72
1414.65
334.57
534.91
371.60
797.00
1286.11
712.08
397.00
363.54
449.14
303.96
712.77
1033.09
839.79
787.03
685.27
351.65
454.80
367.78
377.28
195.77
720.73
909.85
1856.94
1185.55
671.73
2042.65
3148.45
3409.50
3491.43
2858.54
447.35
1860.28
2749.99
2554.04
1796.73
1203.75
530.04
813.79
563.89
259.70
175.97
279.07
418.65
869.72
1105.36
848.62
410.50
773.42
668.34
429.94
710.31
836.43
687.06
501.44
249.64
429.08
1214.92
1343.98
1085.23
1194.72
548.68
426.86
807.88
954.81
445.57
425.60
697.48
719.09
549.68
241.12
363.79
591.80
393.04
690.11
433.75
527.93
604.71
473.31
367.99
677.23
1263.93
911.82
548.94
720.94
551.67
336.30
690.90
471.64
290.02
685.08
1394.18
1577.10
1359.21
1233.32
1043.95
1091.51
1034.37
1197.33
925.04
910.86
1450.52
1238.28
352.29
1556.02
2572.18
2932.87
2738.72
2009.08
633.12
365.25
410.23
266.05
943.28
2011.09
1335.77
632.65
2314.75
1526.04
380.27
636.92
560.04
336.11
426.82
573.22
798.18
567.96
400.25
623.97
353.24
749.83
1536.84
1424.84
1487.75
488.43
201.77
825.47
847.61
412.07
707.20
1108.07
979.43
645.13
1806.03
1686.30
1371.15
590.74
339.57
437.85
387.15
403.10
562.61
773.07
357.84
752.09
1772.19
2324.67
2221.07
2029.57
2587.51
1785.12
483.70
346.65
220.20
596.42
1857.92
1173.93
363.25
1126.27
2108.60
1944.09
1813.34
1213.08
355.32
878.13
357.38
1078.34
420.91
665.65
574.42
406.93
361.53
441.11
500.71
902.24
1078.31
848.46
645.16
605.98
610.94
681.58
1102.50
2198.01
1702.49
683.83
582.56
1408.19
1120.50
475.56
385.60
388.66
423.49
817.20
307.07
324.17
567.21
439.32
368.15
288.93
480.23
1067.86
302.26
437.11
761.07
2434.87
2007.22
1779.40
1046.13
485.99
1090.93
514.46
469.99
892.35
1321.57
860.64
277.16
720.91
218.53
430.45
244.97
290.75
1125.55
2594.47
2722.05
1010.90
327.76
345.23
464.13
927.53
715.49
906.98
1222.27
2219.74
2457.56
1319.79
532.49
333.96
502.25
255.02
2449.35
910.49
1739.75
2178.47
1900.48
926.34
350.29
423.46
602.52
248.77
337.00
961.24
2462.75
2250.47
1074.60
247.59
446.34
182.10
440.46
845.42
816.47
621.08
431.09
1338.12
3545.62
1415.70
430.52
446.80
627.68
630.43
713.61
401.10
303.79
701.15
717.08
531.23
2842.85
3540.95
1806.28
606.64
287.67
321.82
906.15
573.18
254.35
447.83
713.16
1030.96
939.89
635.75
482.26
598.73
544.83
471.54
997.88
1717.83
599.01
418.52
912.76
1123.36
1047.48
1091.15
1798.75
1428.86
444.94
321.33
706.27
1556.26
1196.07
549.64
169.77
364.16
728.60
636.01
507.08
227.40
413.47
533.95
672.40
516.88
370.05
282.33
282.72
610.07
733.05
621.48
577.47
1350.97
1206.02
570.87
268.86
646.06
440.41
1698.17
2215.12
2500.03
1390.40
365.07
1220.61
829.26
423.07
658.62
1249.20
1292.63
567.84
470.99
1181.75
1697.83
2283.91
1244.69
355.48
668.88
681.06
372.32
315.71
256.54
500.31
759.51
366.84
1719.11
2125.69
1161.53
808.18
550.86
709.71
426.55
357.97
988.47
839.27
543.29
269.76
535.26
1763.30
1161.29
754.84
657.18
654.55
416.66
398.26
615.28
346.52
672.00
897.07
891.64
1030.18
556.23
850.96
654.31
385.23
583.46
802.28
959.28
361.32
347.33
598.70
487.96
1385.24
566.42
612.04
784.72
792.70
927.85
379.82
1896.69
2689.68
2029.46
1966.12
1334.97
752.44
758.06
1293.94
1243.12
393.74
561.11
386.08
526.81
419.62
785.37
923.96
891.28
1269.63
675.57
347.78
590.59
464.06
841.28
526.31
389.95
429.71
523.21
598.72
404.97
1927.42
640.34
597.14
388.75
245.65
346.29
478.22
824.33
1015.30
969.07
473.54
437.60
2215.31
1202.08
686.04
431.15
469.77
904.01
1804.32
2439.69
2251.43
1350.44
1274.75
507.49
838.94
1337.20
1826.80
1859.22
1227.81
372.96
340.51
332.02
633.20
857.55
646.05
615.26
726.18
968.41
1133.81
1099.56
545.01
660.04
849.64
1080.26
728.86
977.80
2591.85
2766.04
1124.33
391.30
314.55
425.35
441.00
258.57
387.17
519.51
186.44
371.47
326.88
420.89
992.33
1566.33
1404.82
792.43
255.79
1462.78
3102.58
2674.68
418.92
1276.39
896.68
1162.79
1160.99
2330.67
1629.29
663.03
422.57
334.99
294.82
273.32
241.50
316.39
516.17
967.32
418.13
1109.53
1141.60
1124.61
1315.90
858.01
372.36
352.66
300.28
505.44
2184.48
800.26
586.57
1203.83
2078.99
1855.85
1357.61
514.96
298.35
334.75
238.14
867.53
2475.67
2133.17
627.08
1862.22
3056.38
1822.19
1075.12
878.42
404.47
1304.78
1599.99
1209.41
610.70
383.42
398.27
1192.92
2633.85
2463.07
926.32
381.34
1800.60
2900.34
2688.74
2198.58
1200.07
346.33
562.82
263.27
323.88
528.41
434.94
361.10
509.10
376.68
269.86
1180.87
2271.53
1143.96
374.68
556.95
1499.50
1478.40
1816.86
1081.80
414.31
1248.31
2230.29
1778.34
1502.79
1190.27
626.83
406.71
468.25
337.44
346.01
1079.84
1574.77
613.92
1086.09
1898.19
955.53
521.55
615.71
415.62
619.47
1150.07
1712.09
1803.23
975.53
2660.70
776.06
285.41
597.73
483.81
345.99
663.52
354.65
447.66
217.91
948.13
809.90
899.17
885.45
418.63
561.11
464.34
311.86
435.24
508.79
478.30
705.86
1626.01
2918.32
2789.89
1423.01
358.67
416.96
1417.36
1533.53
1865.60
1426.82
462.01
416.21
561.30
537.56
918.46
511.94
325.29
478.21
1262.34
1585.58
428.29
2099.18
3095.55
1864.14
305.22
1134.02
2858.32
3540.00
3501.94
2887.90
803.73
1109.06
2322.07
2305.57
3175.87
2084.58
320.39
977.11
638.77
213.93
926.16
1119.38
364.00
387.24
869.55
794.70
631.33
370.33
574.56
640.07
312.09
274.76
365.85
302.66
253.38
622.03
525.08
575.66
376.12
541.37
440.44
2174.23
950.77
987.37
698.71
961.39
1183.26
672.09
629.90
1036.47
1062.98
631.01
163.79
835.89
1209.83
1606.95
981.80
978.68
1818.23
2171.53
1306.82
569.35
2062.87
1895.05
2718.15
979.24
461.71
751.93
358.05
1132.06
1550.34
1118.23
898.15
397.23
332.68
2196.72
571.23
827.67
428.75
1114.20
2311.10
2684.65
2272.52
819.18
612.35
1861.84
2107.72
1106.20
557.37
1700.68
2750.72
1952.15
805.10
287.40
429.48
283.06
376.67
950.82
2296.32
2916.61
1983.26
732.59
385.11
1181.43
2542.17
2741.19
1892.55
467.87
750.19
1548.78
2078.80
1746.14
675.49
1101.33
780.78
376.33
563.57
557.63
415.98
263.41
400.36
763.12
2635.97
2608.53
1063.93
309.51
345.23
292.55
772.53
349.33
1608.30
2213.33
1833.09
1013.97
378.37
375.10
796.43
2098.68
2602.35
2097.63
1153.81
263.79
225.91
847.64
1696.13
2272.43
1395.79
325.55
407.83
542.89
730.48
574.52
520.45
292.48
1360.02
1444.98
1552.50
2068.34
1947.44
947.69
1017.86
2265.76
1644.27
368.62
393.84
372.52
405.28
558.02
1349.66
417.68
936.40
1014.22
529.29
587.53
749.20
1515.43
1905.41
1492.79
769.45
2821.38
2965.73
1199.07
891.36
351.14
1388.14
1704.32
2206.20
2796.19
3377.15
3515.67
1423.41
1896.99
3535.41
3475.99
2603.30
1110.84
772.62
556.24
346.51
332.05
471.09
595.32
2117.05
1215.99
896.27
619.82
288.74
702.50
368.22
319.12
836.81
667.13
563.75
611.39
950.97
851.70
1988.23
2104.16
931.09
509.23
1078.69
475.50
1029.78
1240.21
451.85
855.43
2041.19
592.77
499.82
543.70
720.89
1776.12
2067.22
1602.59
746.62
599.61
235.65
345.24
1201.33
408.76
280.48
815.41
1586.42
1229.77
779.68
468.92
1032.72
1132.43
799.90
1202.44
1589.44
351.04
448.74
366.36
395.84
288.36
1128.64
2254.17
2116.91
1152.73
548.54
2375.36
2076.98
1909.52
1763.76
1294.47
1046.63
671.97
1054.44
2356.79
2474.40
1891.28
1060.25
377.20
1898.53
3553.81
2966.07
1253.28
276.32
368.90
783.32
794.88
940.30
1563.38
1382.38
561.49
579.21
1838.06
2500.35
2356.31
1495.59
587.86
313.70
350.15
181.78
1928.48
558.43
717.71
797.27
809.83
566.66
409.11
503.67
452.88
512.89
1160.96
1975.18
1077.53
552.28
518.62
371.97
1036.99
1176.79
986.10
437.88
1180.14
1622.61
2343.67
2034.25
1129.79
881.47
1068.34
1184.20
902.35
779.33
431.66
561.14
830.63
1088.04
510.86
702.32
839.52
748.96
619.35
297.38
834.61
1508.87
2589.21
917.12
1118.36
2863.59
3037.12
2074.79
363.89
1669.37
2104.44
1610.89
526.19
709.06
1675.97
2072.30
1406.99
654.32
2532.43
424.13
183.38
385.14
606.45
725.23
407.08
711.18
1008.01
492.07
356.28
928.57
2138.92
2602.88
1311.78
431.14
725.55
897.73
1028.32
1717.48
1486.05
854.80
333.88
949.03
1019.56
1177.40
2743.19
3480.94
2024.76
503.47
583.97
317.43
1895.01
3392.58
2456.05
1530.01
380.85
539.81
435.85
377.32
461.02
2275.28
2079.54
1016.06
302.39
1163.79
1786.37
1174.24
724.89
237.16
384.18
571.76
418.49
365.18
395.12
392.07
425.17
548.29
742.92
931.28
324.86
579.01
798.91
708.15
922.81
1805.62
1867.72
1019.19
983.05
2073.61
1098.34
998.91
1139.72
1591.56
1386.58
599.48
345.48
499.19
1048.90
313.93
168.31
265.68
1567.57
278.42
620.98
1064.20
1058.16
300.02
492.20
744.20
551.70
375.95
652.91
958.09
2310.86
1653.90
912.93
355.42
395.06
1193.00
1756.18
1597.48
755.07
615.07
1119.06
611.34
442.81
618.10
1032.61
1590.44
1490.07
1211.95
679.55
389.24
284.43
621.29
1128.42
1659.21
1339.54
710.70
238.49
372.47
580.66
578.67
923.60
1234.85
1775.32
1112.10
327.72
3416.01
1602.25
341.30
735.42
1107.97
791.91
892.51
715.32
676.20
410.23
934.99
1562.10
1151.99
821.19
1842.91
2867.62
1373.70
726.81
922.51
783.62
449.18
254.76
686.61
2703.52
548.32
352.19
365.60
561.45
629.99
525.57
266.77
390.48
557.69
1108.64
1421.67
1429.85
559.30
453.86
718.39
702.04
1086.69
2564.63
3429.65
2796.54
1198.53
320.11
399.76
1587.04
1115.53
1865.57
1287.84
478.77
318.17
1206.17
2194.40
1410.55
260.99
376.44
776.59
1118.46
958.52
572.79
551.78
874.80
479.40
592.23
1279.90
763.19
1158.34
1033.41
526.37
629.93
1531.12
1913.75
2568.47
2393.90
1246.49
367.55
356.95
503.91
754.56
600.08
1232.69
656.88
1085.71
1214.50
775.52
354.36
425.34
443.33
339.99
395.33
864.63
978.77
1691.80
425.23
1189.67
1662.61
1964.00
1554.61
450.06
432.47
548.45
537.42
343.39
366.06
451.89
560.21
445.93
365.93
336.71
666.17
510.63
567.69
316.87
217.62
611.09
1700.52
1395.80
1229.81
1583.60
1152.01
501.64
322.64
712.50
810.44
515.73
2427.61
3057.14
1790.99
1128.17
1673.51
780.04
999.15
2246.56
2758.46
701.92
1107.76
1263.80
493.33
471.10
640.57
338.07
270.56
564.95
592.61
704.57
708.32
705.13
640.03
338.12
443.71
719.64
731.68
955.72
709.09
794.96
558.74
300.42
295.26
436.51
376.55
375.67
619.80
787.26
626.92
1517.24
797.03
1329.88
1176.37
551.39
309.14
1133.93
2380.73
2205.78
1847.24
823.96
259.97
1006.96
461.52
395.53
302.25
345.95
249.66
363.59
677.59
623.17
263.06
550.59
782.67
1425.32
588.85
435.26
293.17
343.65
598.41
229.90
272.97
1331.99
1971.07
1781.07
1627.71
1801.53
441.28
1101.58
1325.91
1104.02
456.99
271.23
292.75
419.16
350.27
522.66
885.29
1287.18
512.36
367.22
247.79
251.31
441.58
367.73
675.44
742.40
514.23
464.34
529.30
1683.31
1466.69
1902.41
2016.93
1270.16
561.33
839.15
1081.46
302.44
968.03
1221.24
909.00
384.67
471.45
422.21
651.35
1314.52
1582.56
1549.05
487.54
1168.83
1803.52
519.25
1218.34
344.37
682.93
1203.30
1207.11
2078.56
2528.08
1723.90
705.58
1858.25
2794.06
3504.29
3452.76
3027.69
1908.12
300.65
1244.30
1531.69
867.50
597.34
737.99
956.26
1077.18
1149.03
796.80
588.06
414.80
260.10
562.72
311.17
247.04
542.07
803.32
916.10
273.86
982.78
657.78
694.34
960.09
1298.78
1858.22
2192.03
2664.13
2572.13
1488.09
706.71
2579.74
1662.41
699.66
393.23
2254.68
3573.37
3405.76
3018.95
1817.88
506.74
846.53
1440.63
872.34
997.61
1595.01
1945.50
1909.18
1882.32
3366.64
2883.26
1215.65
320.80
379.38
472.94
390.20
490.51
575.67
616.54
502.97
575.18
145.94
915.46
1003.37
558.11
290.33
408.46
621.78
1009.69
643.48
480.21
707.18
644.64
701.24
1052.26
1243.48
1486.94
1312.66
972.25
691.93
1027.85
1597.98
912.24
697.05
1859.98
2451.65
1193.81
318.38
276.86
468.46
411.61
838.58
1713.27
2287.07
2413.24
1938.58
1321.31
441.11
1729.97
3460.32
2646.59
540.09
2920.18
3468.39
2411.22
1153.36
647.27
653.35
1676.59
1858.70
1714.62
1372.23
529.27
438.38
576.35
318.58
712.34
856.53
798.52
886.42
348.51
379.10
508.06
1637.81
393.68
245.18
394.93
479.17
417.50
906.19
1630.58
1212.18
876.60
943.29
541.12
1315.42
657.82
545.19
563.17
354.86
364.26
433.09
1703.76
2733.92
1945.83
696.83
299.81
795.50
305.61
270.30
478.11
307.22
572.51
425.21
242.02
872.23
1518.19
1134.19
468.68
565.01
734.37
766.82
640.30
355.22
1693.47
1146.73
295.38
348.46
743.75
1244.17
1870.42
1018.13
338.07
664.64
1660.67
2062.38
1642.24
358.87
565.47
461.31
288.54
338.18
404.56
1929.98
489.16
672.55
724.10
561.37
432.55
458.87
690.53
878.24
944.86
688.99
299.70
414.48
664.29
641.86
809.57
1102.82
2078.02
1922.35
643.09
1249.33
1207.92
675.65
672.32
479.14
528.61
969.48
1553.63
1303.84
496.56
879.76
2165.18
1931.85
778.92
422.16
958.04
1107.88
1038.22
1121.95
1519.59
1698.10
917.91
835.35
727.17
486.06
307.61
872.15
3469.63
2104.17
1790.80
1201.07
592.94
525.82
455.78
327.77
575.60
879.02
894.16
1234.48
1401.75
612.11
117.31
327.10
611.47
669.51
549.36
511.78
1044.41
296.16
879.43
1033.57
1575.09
831.59
452.21
243.55
468.90
823.65
525.40
333.82
237.96
387.99
215.07
398.23
1164.61
622.84
1254.87
1393.70
1023.68
1094.31
1210.15
790.39
433.24
294.04
617.34
1086.66
1229.47
421.50
464.56
526.61
515.38
116.51
873.56
692.10
328.99
1226.23
1818.95
1470.79
1185.59
690.93
333.11
452.16
877.73
653.97
664.89
1278.04
1320.13
653.38
614.83
2174.62
3276.53
2785.65
1913.28
1027.27
1240.27
3472.45
3460.19
807.90
1042.61
1318.01
1556.68
1763.75
586.13
149.18
386.33
524.63
938.85
1165.25
719.15
321.90
1085.87
2008.05
3506.95
2680.05
2241.53
2000.34
1034.84
264.74
312.29
357.97
571.03
344.82
343.66
192.74
1146.96
952.47
881.40
467.30
653.19
959.95
1181.84
1176.69
791.93
405.86
184.99
260.59
289.39
414.13
376.58
299.86
380.86
479.97
520.20
640.64
1194.57
724.98
335.52
212.69
820.18
384.01
683.42
827.69
584.00
696.45
1114.31
1394.91
961.79
701.79
885.31
447.57
933.01
433.60
365.17
941.92
512.75
195.57
240.10
548.11
1313.67
1574.08
1566.02
753.88
1197.91
260.15
649.68
610.15
536.83
650.33
1063.11
2414.42
2864.18
2685.51
2338.74
1953.47
1046.59
1414.79
2569.69
2234.06
1247.20
362.08
840.00
481.74
436.62
486.91
340.70
1401.49
157.15
290.87
299.42
350.56
1323.85
2233.94
1840.42
303.09
1562.13
1950.04
1533.05
1117.95
872.25
1456.03
1541.50
563.74
231.45
251.26
415.66
1173.17
1587.59
1165.35
2292.13
442.51
219.64
973.48
1310.98
1531.22
1539.17
850.92
308.34
187.77
517.80
1182.80
1500.32
1046.57
658.66
167.16
513.28
307.41
468.63
544.91
810.26
666.92
189.42
345.95
527.27
456.40
356.37
383.47
447.23
894.44
1846.36
1980.45
2043.58
1346.61
658.86
187.14
664.46
1032.95
795.75
281.44
275.81
1070.28
2553.80
2935.35
2403.46
851.84
590.21
2685.00
1428.42
525.67
455.81
354.14
275.81
359.73
905.07
1068.81
562.53
176.57
334.50
1412.89
810.08
708.72
339.48
288.64
248.35
623.86
1289.94
472.83
362.58
845.26
545.53
219.49
494.64
514.05
340.19
433.46
650.16
804.43
723.49
478.82
446.81
665.82
716.06
396.23
1476.77
2015.50
2499.61
2202.43
1336.23
356.19
1020.82
1211.13
1172.17
629.94
351.37
763.54
973.14
885.89
1098.88
440.52
731.72
611.59
191.01
290.98
397.35
514.62
340.29
603.10
1086.37
1386.48
1640.93
1486.10
730.81
420.57
685.90
545.42
787.83
1138.87
1100.89
585.22
480.62
254.06
264.65
403.97
844.30
1076.91
666.25
479.48
720.49
1380.06
1488.89
1954.48
579.98
284.76
207.80
450.73
738.38
367.41
160.86
407.20
550.85
790.46
1251.28
1062.12
632.38
407.99
416.66
537.64
437.37
251.15
338.52
812.13
927.11
830.99
526.25
837.46
1463.41
1259.88
449.86
1053.83
1204.88
902.78
562.54
494.03
378.95
828.95
1574.11
2132.82
1289.97
275.28
1743.01
2901.02
3325.63
2390.56
1322.40
295.23
713.90
1085.39
799.09
456.18
820.97
1621.38
1501.63
923.00
564.15
612.86
364.82
200.02
463.99
506.19
698.80
908.71
622.05
178.64
225.09
221.14
235.75
250.41
538.71
779.33
619.50
234.90
260.80
1308.22
245.81
291.51
505.97
514.50
226.63
877.93
929.48
363.24
1279.02
1499.80
1593.49
2344.67
430.39
527.68
639.02
1221.50
3011.86
3463.62
1612.20
838.72
3003.77
3061.79
1266.59
394.00
304.77
382.61
412.28
497.66
590.96
273.62
347.78
307.81
644.69
520.33
273.38
737.65
439.98
434.23
1257.42
1611.42
857.78
360.48
682.67
569.88
701.53
851.95
845.69
751.88
348.13
385.01
369.26
450.97
554.88
644.06
859.76
430.92
362.19
324.13
255.41
1105.72
734.74
1615.52
2388.35
2336.27
2202.11
1991.84
645.61
1640.67
3333.06
3403.77
1792.85
1018.77
2332.05
1887.53
729.31
676.19
559.01
293.74
666.85
510.28
765.47
559.16
1501.81
710.33
280.96
308.99
555.82
1013.27
1240.01
971.58
451.00
640.76
1280.84
1026.03
1670.95
356.18
462.64
1027.59
1926.39
1735.15
1087.72
870.13
1113.42
1216.82
1314.98
758.61
1213.38
1691.03
594.86
1199.36
2908.26
3555.21
2386.39
1600.38
1109.15
410.00
284.06
307.80
231.90
272.97
731.59
1701.87
1875.81
1523.35
1566.91
1946.22
1619.01
810.90
914.41
574.69
1189.96
707.86
463.29
989.71
1034.85
343.43
449.47
1524.34
1681.28
2546.09
594.30
891.02
1027.14
658.26
586.24
943.66
1400.03
1318.14
823.03
306.65
808.92
1699.38
1602.16
1147.27
295.06
288.03
377.58
665.51
438.92
1361.43
1187.99
635.01
527.83
659.22
760.46
659.72
379.37
520.61
753.30
552.85
332.94
696.95
1413.81
1280.09
771.88
936.71
409.84
501.69
559.77
451.88
346.68
653.85
671.23
473.57
543.17
507.42
224.94
326.70
726.52
489.33
460.94
277.97
241.38
408.40
328.36
418.08
412.59
315.63
554.71
670.38
2620.19
695.16
519.50
337.26
887.75
932.06
916.42
1113.48
1109.12
187.39
660.65
605.16
1292.86
1667.14
1233.26
615.84
547.93
520.27
561.51
529.74
254.10
207.87
867.10
859.86
880.74
2061.88
3190.11
3002.98
1687.42
311.92
680.58
1789.93
1957.65
1375.22
669.51
1086.72
206.66
192.72
169.73
488.57
796.04
507.60
752.38
544.51
275.22
331.15
353.28
657.48
1318.78
1439.32
1328.82
1541.76
1645.76
1563.96
1272.89
1875.41
2258.21
1294.12
944.43
424.98
1869.23
2109.45
1756.75
1539.33
474.98
321.71
385.81
354.70
1027.70
1759.64
1873.31
457.22
308.30
563.31
785.34
422.14
301.96
382.70
436.24
332.59
274.40
472.95
2592.56
378.22
284.95
762.06
1180.45
829.22
716.97
503.63
894.83
1403.25
1280.61
1228.89
2262.34
821.63
271.31
634.83
496.44
670.27
707.09
333.71
608.86
701.93
953.16
1606.91
2626.03
454.66
812.58
1458.87
1749.16
2048.87
1321.56
338.25
1371.32
1427.77
501.74
222.93
278.22
257.37
305.95
244.37
787.57
1005.23
674.87
335.10
1048.94
728.30
405.39
746.46
656.87
679.46
330.22
962.39
631.77
378.76
576.27
251.95
267.58
780.28
1769.83
2166.41
2506.02
2477.31
1919.72
536.43
696.06
787.21
248.89
690.05
489.35
281.37
493.30
1033.82
2382.39
1355.24
1250.42
431.46
381.63
732.28
418.23
361.15
731.21
900.29
569.98
39.18
993.72
1178.19
1774.98
2325.29
1860.36
801.92
501.61
2498.22
2986.47
2408.03
1237.25
2086.71
1261.10
774.92
934.37
1492.40
1371.70
1120.92
742.97
788.87
577.50
356.58
2972.23
441.58
270.99
446.38
491.25
749.75
1080.44
1187.16
1521.67
1788.79
1412.93
525.01
1200.81
521.20
574.50
751.89
495.50
350.21
555.55
967.37
1108.24
420.31
123.18
231.09
1585.40
717.15
382.70
237.31
185.50
297.09
443.97
468.94
220.16
399.53
751.72
301.38
749.72
1218.12
1311.82
972.29
726.71
358.69
352.71
419.43
358.18
444.72
622.77
754.16
997.26
977.59
227.94
1058.42
900.00
513.74
1612.78
2783.08
3201.13
3010.64
1809.82
535.39
1322.85
762.90
403.46
1034.13
982.41
150.51
610.30
579.01
461.55
384.27
284.61
236.53
1410.66
271.91
285.42
524.53
413.26
599.45
1196.64
983.06
750.80
1847.12
2202.11
1511.63
1542.02
2923.63
2891.65
2018.74
1137.76
820.83
486.74
257.19
269.72
413.47
504.83
1167.46
556.20
553.39
597.78
643.83
1067.65
762.84
468.70
571.21
719.95
614.43
334.75
246.64
855.25
618.22
330.84
256.46
873.60
945.63
855.78
891.50
1101.19
802.44
700.79
1169.74
645.48
469.94
379.17
286.12
825.70
1609.58
1487.92
1039.90
242.91
261.90
500.06
1094.36
421.47
422.45
336.50
240.01
518.78
525.05
406.93
118.98
672.34
1059.72
1187.02
644.31
509.25
388.56
212.29
326.45
171.34
231.76
264.17
155.47
277.46
921.01
1871.13
1460.05
1148.34
324.85
191.95
446.32
512.00
654.97
171.36
364.28
563.20
384.93
244.34
263.64
2486.21
323.07
319.07
239.94
350.46
719.97
1222.85
1216.90
632.35
240.84
409.49
847.94
301.38
1218.47
1952.86
1511.53
715.91
549.77
1322.51
1794.07
1490.04
697.24
457.78
1224.80
1387.70
1294.13
1364.81
1733.73
1179.43
836.87
478.75
897.51
989.60
482.37
368.46
1345.23
290.75
894.03
1472.62
1101.93
298.68
740.94
476.23
485.20
235.56
730.11
1123.69
1456.65
445.21
275.59
738.11
290.02
332.97
661.47
753.60
448.06
646.04
588.02
499.24
886.62
1643.18
1384.04
682.04
592.86
806.97
323.70
1010.87
1538.91
914.34
467.45
414.28
1396.23
355.38
1065.31
2228.23
2969.89
2340.33
1202.53
367.75
1151.06
765.55
811.00
1061.87
845.69
456.86
230.21
446.53
717.91
1040.93
652.22
454.42
577.25
388.06
424.58
245.15
719.56
246.09
212.94
288.72
405.01
586.18
500.82
466.88
257.22
391.74
604.23
588.65
494.39
585.58
409.69
360.89
142.16
213.16
497.10
750.11
770.76
503.36
598.68
1055.62
910.07
1126.60
386.17
483.81
586.42
388.28
459.89
455.58
292.89
256.61
348.63
588.63
663.53
697.16
1159.12
1420.73
1343.83
915.05
560.96
224.86
1532.56
1246.68
319.91
953.06
742.25
1812.15
271.53
399.34
1224.38
1876.73
1805.79
850.39
955.65
2083.54
1892.26
1606.16
1312.10
559.11
187.43
567.34
867.13
1223.60
1082.38
678.05
668.25
530.37
281.01
837.83
1922.54
452.49
344.90
365.57
333.86
307.30
785.44
1440.76
1388.21
1339.12
1439.48
1371.21
1318.90
370.03
984.37
1087.77
435.99
456.08
574.44
474.48
624.17
746.04
319.16
403.34
631.53
627.30
710.27
487.23
307.52
320.76
682.15
654.33
446.01
366.96
601.98
943.07
892.19
726.07
334.10
202.92
278.84
270.42
567.32
554.55
217.84
251.50
360.62
234.24
742.08
1684.03
1785.26
1748.76
1332.42
332.72
337.18
126.42
309.16
345.58
710.17
533.76
339.24
1899.54
1543.01
1281.88
359.98
555.45
1931.72
2468.82
1871.88
871.60
931.58
2051.90
1820.92
1309.67
1015.76
988.62
1023.49
267.16
235.78
495.54
630.76
1075.19
923.38
1496.78
1999.92
1568.05
805.15
534.27
701.77
1330.39
1422.55
891.86
740.08
260.74
1048.61
3571.75
1195.51
656.90
206.21
490.61
1268.62
828.32
728.30
2420.01
2318.10
1122.04
318.73
832.45
425.40
404.42
548.98
505.72
738.88
473.46
463.48
709.20
1134.60
777.38
516.64
1749.11
802.52
651.13
385.24
251.07
255.55
194.53
275.80
306.51
222.15
416.24
361.11
251.88
400.31
386.19
266.02
294.81
335.56
581.91
638.88
821.63
683.41
578.96
322.19
208.88
249.89
521.43
225.24
467.06
494.48
459.54
379.86
379.36
393.61
241.84
627.04
608.62
651.60
2352.19
840.74
1045.53
957.52
559.32
321.29
227.19
326.41
259.84
432.28
524.54
376.00
339.66
345.41
692.97
302.06
502.85
1001.29
1069.17
384.47
574.18
432.05
394.87
997.25
662.61
280.37
409.22
232.70
585.86
651.43
1440.96
1847.66
942.04
626.15
884.32
570.75
892.43
558.42
854.01
893.95
324.26
214.24
329.89
402.34
438.52
433.45
375.27
297.83
407.73
933.73
274.42
335.30
503.60
630.74
531.72
422.83
541.10
828.74
1220.73
645.54
399.64
1692.28
1710.78
1071.24
650.40
230.12
1480.70
2595.55
2344.43
1053.72
238.26
213.52
779.98
1995.33
2171.59
2232.21
1386.87
510.56
359.51
562.28
474.23
400.46
607.58
1229.98
784.29
408.32
179.20
329.76
341.49
221.73
395.64
356.28
414.18
1023.37
1106.19
1040.28
297.95
432.55
317.32
279.51
489.45
636.09
887.77
921.76
1075.61
653.14
554.35
484.35
418.20
442.60
479.87
658.39
1001.22
833.65
742.17
462.22
241.13
237.88
365.78
362.23
425.83
2268.57
890.30
656.29
615.44
484.24
429.15
398.99
420.20
216.88
575.24
1309.09
1465.30
1350.39
726.47
319.66
471.39
673.68
1123.59
1352.07
1165.01
898.42
403.24
530.54
573.73
1645.08
269.55
243.78
462.12
350.63
894.91
2129.85
1745.36
546.10
451.47
468.14
379.90
2391.68
435.60
641.30
1030.31
1009.43
869.85
905.41
1115.61
1220.35
991.09
755.04
587.17
541.51
244.58
253.23
411.85
632.86
808.82
462.96
190.95
252.59
238.78
412.61
402.57
2351.65
459.37
546.32
331.68
494.44
594.56
292.53
445.33
209.29
395.11
249.00
529.90
867.49
1254.01
835.12
623.70
362.86
613.14
842.39
616.27
288.34
492.46
490.65
566.48
1021.99
1602.14
259.52
333.08
372.21
326.89
1055.91
650.80
335.33
499.07
894.67
1090.70
1197.36
1534.83
437.30
265.29
522.94
696.88
683.69
314.44
233.24
337.36
582.91
891.77
1025.50
1819.00
1107.12
1969.19
1563.59
858.58
316.13
627.07
959.80
1303.50
357.33
796.42
2659.58
1336.36
1394.72
1430.22
1281.02
561.67
785.18
930.54
619.88
1141.77
1200.08
1077.83
643.72
205.06
632.90
255.42
556.75
1470.57
1678.10
1142.49
234.58
1059.53
1542.97
2067.86
535.10
613.19
716.50
657.08
903.48
481.77
586.92
1571.33
1817.77
1827.90
1553.80
1387.96
639.32
394.00
430.48
471.82
434.63
1149.98
1807.89
1210.04
317.67
560.82
601.22
1087.77
1070.34
902.62
574.74
377.73
497.48
651.00
779.96
813.70
1242.37
1036.19
736.10
444.09
1612.91
1408.44
772.08
342.84
316.08
393.28
314.19
939.91
1731.52
1256.73
837.37
427.77
600.60
293.02
523.51
1077.37
1550.94
915.60
278.39
299.23
341.00
593.01
736.74
