1373.30
1230.20
1247.84
1131.66
1203.72
419.11
507.37
482.65
592.73
738.47
672.10
544.81
2307.63
1146.83
1137.57
1117.48
1097.52
1057.26
1142.03
1089.17
1143.40
808.57
679.21
1741.77
872.18
968.87
892.23
750.63
1507.74
1575.37
1729.41
1419.03
1413.77
1460.84
1234.92
1246.57
1088.21
1017.05
587.73
555.42
444.95
627.22
480.99
604.62
659.73
1225.07
1504.58
1199.01
881.30
1062.36
1235.77
1466.75
1388.66
1580.49
1684.95
1414.40
1425.01
1964.68
2028.92
1891.79
1616.64
1115.34
1138.38
888.99
1170.06
2243.72
2029.03
1774.13
1569.51
1058.19
1162.65
836.18
1037.19
889.50
891.87
442.70
611.75
431.52
957.36
1483.95
1349.87
1040.92
1006.90
979.34
1067.83
1254.94
1164.77
1031.47
790.93
1156.21
1529.43
901.01
730.04
1102.61
845.75
1433.67
1266.43
1316.64
933.15
864.22
1062.09
1812.97
1176.83
1335.31
1159.84
548.31
430.76
493.74
456.20
493.74
527.26
602.37
1643.39
1069.19
1038.17
875.51
1217.35
1214.76
1307.38
1140.30
1062.69
733.99
821.26
1425.06
778.95
711.84
677.19
849.93
1163.81
1173.95
1116.70
961.24
1208.86
1413.32
2398.00
1036.48
1387.65
1227.98
538.79
499.98
470.34
644.51
587.78
407.45
524.11
1198.79
1490.30
1058.60
954.17
1105.49
1174.71
1248.19
1256.69
1179.27
1264.95
700.19
945.31
1177.69
543.26
748.90
733.33
734.18
1515.17
1235.71
1330.65
819.85
1269.54
1063.00
1165.33
1232.12
1232.61
669.47
536.71
657.07
529.61
279.18
532.78
475.78
1096.33
1356.10
2417.74
1775.80
1244.03
1262.83
1449.02
1740.06
2106.34
2353.72
1898.35
1558.44
879.95
3216.46
1819.59
1920.79
2297.65
1292.61
1250.00
999.15
953.13
1004.29
1215.28
937.65
3487.68
1294.47
1179.63
302.90
553.38
558.64
650.77
574.90
509.01
623.50
919.19
1069.32
1151.39
896.36
1242.62
1291.17
1229.15
1200.50
1462.07
962.10
829.94
731.40
904.80
747.71
855.95
792.80
1085.25
1346.64
1421.77
1214.06
1027.63
1373.97
1183.95
1339.43
1126.58
1150.16
581.82
271.68
510.93
803.52
453.50
711.36
407.44
1013.44
1099.06
2494.82
1056.82
856.60
1236.30
1182.66
1375.32
1159.49
1322.82
833.25
835.39
601.69
2354.96
934.25
848.08
898.16
1414.85
1242.69
1225.26
1038.93
1322.77
1064.85
1160.28
3410.15
1117.40
659.51
489.63
615.63
403.75
436.13
740.30
331.14
1210.03
1170.40
1238.45
1309.85
1181.06
1255.03
1193.07
1305.94
1331.35
1521.85
759.62
865.85
849.03
848.06
1481.94
803.11
772.96
1192.32
1315.60
1193.38
849.11
1151.22
1179.55
1266.38
1212.43
1354.58
1247.70
691.28
400.13
520.08
520.99
518.02
602.15
585.93
1037.29
1180.38
1080.50
1136.51
1121.10
1340.90
1755.48
2159.45
2139.32
2035.63
1677.53
1118.58
792.74
804.27
1263.51
1795.98
2554.61
2477.75
1215.93
1129.96
1420.73
1504.66
1204.80
1371.13
1548.35
2070.46
1891.93
1731.12
1330.62
1151.01
975.24
556.92
560.64
1260.06
1021.73
1114.49
1073.37
1016.39
1210.03
1373.19
1439.37
1431.86
1326.76
1082.41
1148.55
1008.05
1047.75
1001.59
900.87
664.74
1305.84
1068.57
1307.32
815.99
1125.25
1151.11
1166.49
1336.98
1531.97
800.57
795.89
882.55
411.02
367.77
620.05
501.00
1077.15
1078.87
1166.51
1161.65
1037.86
1305.64
1264.54
1023.14
1251.02
1100.51
492.17
915.17
924.21
1023.54
1364.91
698.78
732.87
1147.65
1404.62
1185.49
1207.53
1128.08
1346.62
1130.69
1406.34
1388.44
1208.49
762.97
784.79
539.83
491.14
791.96
897.88
487.36
1045.31
1283.89
1466.15
1190.18
1184.92
1520.05
1357.89
1405.31
1495.80
1246.99
1000.41
804.63
490.70
936.53
960.30
1006.66
1227.32
1152.81
1262.70
1030.94
1127.64
1323.36
1188.37
1197.09
1642.20
1233.33
505.25
580.53
603.67
318.44
567.31
636.36
428.97
964.92
1271.47
1981.23
1025.64
1100.81
1410.14
1159.66
1283.79
1126.03
1151.35
796.62
937.53
601.45
694.68
720.02
863.48
772.15
1379.42
1576.86
1222.35
1017.41
1527.66
1689.60
1387.63
1197.51
1539.42
575.98
484.26
373.90
625.96
470.43
517.32
620.65
1168.94
1031.56
1104.58
987.45
1223.87
966.56
1363.99
1341.08
1544.38
1573.37
1201.20
1087.20
1070.43
1047.49
1792.22
1924.20
1457.15
1420.07
1261.43
1092.61
1001.74
1103.04
959.17
1106.93
1243.71
1218.43
1231.76
514.17
824.11
870.91
590.11
631.63
717.90
992.83
1211.14
1377.54
1163.28
891.43
1260.47
1108.46
1064.13
1033.69
1419.03
602.08
556.06
495.74
895.42
848.76
1266.39
931.32
1470.13
1356.63
1202.60
1051.30
970.24
1511.83
1470.92
1239.77
1215.43
1639.58
554.57
487.39
924.32
1148.26
1278.68
1148.08
1081.13
1304.48
1387.14
1298.08
1430.94
1126.17
1048.38
1304.00
1330.61
1203.44
1167.40
488.32
654.74
627.09
771.51
1155.77
498.00
763.81
1516.61
2125.02
2201.64
2074.93
1599.89
1238.52
1151.81
1208.48
3138.10
1781.88
1847.21
1382.88
718.58
717.42
740.79
818.70
771.66
1247.97
1075.17
1295.83
1094.14
1283.61
1106.54
1215.30
1306.06
1186.12
1146.69
899.29
560.32
801.98
420.83
601.84
746.34
1630.61
1467.79
1422.79
1052.64
1234.05
1185.19
1382.98
1245.30
1222.57
1197.17
465.24
540.69
362.33
377.67
565.12
614.19
503.34
1185.25
1234.05
1088.48
796.88
1060.23
1432.23
1163.82
1217.11
1286.28
827.84
651.09
433.25
690.32
667.31
820.88
1057.03
1545.86
1582.68
1351.19
1035.84
1040.73
1310.63
1215.50
1529.05
2036.09
1636.48
1519.95
941.17
688.96
743.97
494.26
556.69
528.45
984.89
1291.78
1247.02
1152.84
3321.29
1058.25
1174.34
1117.72
1327.91
1115.95
528.61
349.62
543.05
571.67
595.60
712.22
737.25
1325.15
1034.77
1039.58
990.35
1351.48
1165.54
1376.01
1291.32
1239.19
815.65
1260.58
735.70
307.46
519.82
767.69
689.27
1073.16
821.40
1219.53
995.48
1024.02
1013.45
1202.19
994.30
1373.51
1257.46
840.45
919.54
831.81
718.06
1053.37
581.46
897.14
1536.02
1551.87
1286.13
1279.34
1105.09
1466.05
1255.69
1156.33
1016.17
1132.06
523.68
591.30
515.62
659.09
616.39
691.19
914.02
1262.57
1174.83
1251.21
896.83
1275.62
1274.50
1308.60
1070.55
1292.92
1082.79
1671.38
2244.19
2508.64
2463.85
2070.01
1247.48
1481.61
1142.60
1505.45
1916.94
1786.33
1417.25
1252.15
1447.32
1573.29
1654.56
1117.27
1057.82
674.51
395.49
585.44
566.97
645.33
1378.58
1440.42
1325.38
1176.86
1236.76
1580.80
1216.54
1276.66
1182.44
1128.98
778.70
929.22
1121.58
911.48
1156.16
1307.31
1423.20
1690.99
1232.99
1111.35
974.73
1095.87
1329.40
1070.79
1155.40
1339.99
763.39
1183.91
456.29
539.33
403.44
433.48
689.58
1171.33
1122.49
1120.36
1292.77
1354.66
1755.12
1303.70
1471.87
1456.69
1331.46
525.34
905.78
686.31
845.14
817.12
728.20
1512.54
1197.54
1168.60
1252.57
1021.82
1002.41
1219.89
1147.91
1336.78
1193.79
983.03
1662.20
820.20
995.09
1055.61
651.20
749.33
1079.55
1249.19
919.70
1134.76
1082.67
2759.09
1333.50
1348.76
1538.04
1365.33
659.59
691.14
887.74
1968.05
2168.87
1842.79
2668.12
1161.64
1137.28
1060.73
1338.50
1038.71
1011.60
1182.98
1497.02
1429.10
1376.53
2842.18
975.91
585.10
345.81
640.36
459.44
636.51
1232.12
1200.73
1100.35
1081.42
3371.21
1178.10
870.76
1083.47
1376.91
1211.45
894.32
913.95
789.21
882.79
510.82
1080.03
610.40
1157.02
1191.24
1643.45
1574.18
1648.70
1561.02
1292.24
1118.77
1213.51
751.45
509.68
1050.81
1606.97
2280.56
2967.61
2624.47
2054.00
1274.44
1276.39
2138.87
2791.54
2795.51
1940.53
1304.68
1290.29
1185.96
380.54
639.04
698.92
479.29
669.68
452.91
608.81
1292.07
1390.85
1638.59
1351.68
1106.33
1559.32
1631.46
2426.64
2324.22
1379.28
808.09
539.64
918.49
967.27
941.99
844.31
887.05
1188.18
1385.60
1209.51
988.34
1497.20
1395.73
1797.35
1979.75
2435.41
2056.84
1633.54
723.42
485.93
845.16
786.77
957.34
1073.23
997.98
1240.51
1354.50
1979.53
1982.28
1799.19
1330.80
1179.22
1109.14
965.13
766.62
1221.16
1418.33
573.04
1269.26
1569.32
2698.36
2524.81
1782.12
1154.21
1425.84
1258.07
1291.44
1595.21
1254.48
1137.88
433.18
463.14
557.35
483.01
651.06
1349.14
930.99
1375.82
1522.10
1368.11
988.29
1174.56
1136.05
1214.06
997.48
1157.05
1141.85
465.20
679.39
350.78
525.17
754.68
716.15
1042.91
1186.43
1157.72
1047.34
1974.13
1158.29
1473.10
1497.43
1383.85
1264.33
883.76
760.27
775.87
990.09
1570.78
2686.84
2432.37
2830.45
2411.61
1662.51
1006.53
1075.07
1487.40
1286.18
1364.06
1106.44
3476.85
1531.47
853.05
679.14
638.37
629.14
531.07
990.35
1084.60
1033.06
1076.66
2860.67
1173.44
1209.12
1219.64
1240.73
1220.47
900.34
982.58
827.04
577.74
542.33
2787.78
705.28
1421.07
1425.87
1512.52
1008.15
1093.01
1151.73
1178.01
1130.28
1797.35
2063.18
1231.93
945.12
1074.78
1303.09
728.90
620.59
657.58
1561.19
1850.78
1293.34
1151.09
1106.42
1061.05
1078.67
1478.34
1026.45
1173.08
1110.86
1186.29
1515.83
1066.46
569.19
569.82
739.61
1183.92
1095.71
1380.80
919.55
1493.33
2276.82
3510.40
3597.43
3428.96
3455.95
2766.20
621.18
3441.15
3424.71
3561.52
3644.99
3514.47
3393.13
1953.08
1316.70
1005.36
1179.78
1105.03
1271.69
1466.48
1208.25
811.14
697.80
812.00
728.77
751.56
771.38
813.82
1649.36
1466.10
1455.89
1155.68
1347.88
1281.20
1095.52
1363.15
1150.19
1222.04
794.65
545.61
898.20
742.76
659.19
644.73
788.50
1146.56
1248.00
1111.58
1153.24
1335.04
1325.23
1414.78
1209.86
1132.44
653.33
602.73
832.68
956.03
783.61
1024.60
775.92
1328.73
1137.06
1468.75
994.24
778.66
1276.62
1168.28
1179.57
1341.22
1411.08
708.69
299.89
675.13
829.40
946.31
853.62
695.75
998.70
1216.42
1195.62
2724.22
964.20
1013.68
1348.87
1167.28
1133.62
1028.61
580.98
336.72
564.85
709.41
2838.95
768.17
923.53
1375.64
1747.05
1874.78
1694.35
1875.10
1924.11
2973.17
3464.44
3611.73
3268.90
1176.60
2448.39
3490.71
3437.75
3512.48
2486.91
1526.53
1205.49
1187.69
977.52
1237.21
1306.09
1852.29
1792.82
1499.77
1443.36
1027.27
701.19
614.22
698.60
339.01
745.86
739.22
1125.42
1060.12
982.16
813.21
1296.22
1579.94
1234.76
1148.11
1129.11
976.30
502.78
558.11
605.98
769.66
457.74
547.44
792.57
1055.28
1167.58
1427.68
2500.52
3405.67
3436.69
2684.46
1579.33
1674.98
3052.01
3041.33
1487.21
947.42
1991.59
2099.58
758.19
999.26
983.11
1192.18
948.87
1054.87
2458.41
3537.24
3686.84
3426.31
3459.41
2020.60
1243.27
3437.51
3530.01
3420.15
3550.39
3452.18
3438.24
2156.55
1325.45
2188.84
1060.45
1609.33
1649.16
1620.14
1317.24
844.56
780.39
655.99
701.45
470.20
2208.11
480.66
701.41
1277.25
1806.88
1631.39
1227.68
1271.71
1285.39
1523.49
1158.70
3485.75
655.45
389.34
553.04
432.23
363.43
866.54
789.56
1141.26
944.35
1167.69
3122.54
1090.38
1525.65
1412.52
1175.30
1117.17
1142.02
532.65
1108.42
2257.99
3598.17
3437.61
3530.38
3617.63
1657.71
1061.92
1413.24
2186.76
2109.29
2614.34
2416.03
1908.42
1933.36
882.50
967.14
1190.40
1232.14
754.36
826.72
766.25
704.64
1169.71
1270.99
1035.84
990.81
1242.59
1224.58
1425.07
1111.57
1299.34
866.48
955.56
1445.44
2224.94
2764.62
3156.36
1818.30
1142.71
944.18
1230.32
1556.27
1130.04
1289.14
1281.67
1395.93
1446.29
1161.87
588.14
802.83
1123.65
1268.92
712.50
516.65
602.77
1170.89
1121.57
1078.89
1048.62
1081.43
1372.40
1259.44
1410.90
1141.08
1145.48
919.03
1086.18
817.67
674.13
811.52
853.61
1050.04
1715.55
1888.94
2168.40
2059.43
2111.43
1501.09
1285.27
1187.08
1449.25
862.11
588.01
482.29
647.65
1357.18
2250.44
3432.99
3465.53
3415.69
1557.10
1236.40
2788.82
3551.26
3452.51
3535.48
3512.35
1981.14
1297.99
497.15
370.04
1148.96
1344.78
1677.60
1368.02
1682.51
1641.91
1768.80
1374.43
1243.68
1355.61
1146.63
1390.25
1225.00
947.40
953.05
1076.55
863.52
673.93
483.93
894.83
790.32
1163.35
1096.69
1285.39
1743.61
2252.16
2119.91
1828.27
1631.18
1815.93
1475.07
936.71
884.31
555.58
939.81
488.07
575.61
1018.51
874.04
1209.98
1396.91
1402.11
1707.48
1409.90
1057.11
1645.41
1147.95
604.99
377.59
350.21
714.19
459.70
686.44
569.82
1131.75
1501.83
1392.15
1051.20
1080.15
1547.13
938.49
1170.15
1402.63
1703.05
1759.34
1239.53
539.83
861.50
700.66
778.72
778.16
1131.46
1099.18
1315.77
1110.27
1984.50
2184.47
1691.87
1398.23
1128.73
553.28
480.27
526.58
1078.27
1802.68
2522.06
2008.80
1454.77
926.50
1561.40
1040.24
1422.73
1660.55
2008.55
2651.92
2245.48
1863.48
1839.16
1045.64
464.18
1419.77
938.86
1017.20
1008.73
1766.23
1479.27
1220.33
905.04
933.92
1299.51
1531.90
2120.76
1276.06
1062.53
304.18
592.26
646.96
509.29
760.39
758.07
1190.66
1258.49
1890.69
1291.22
1031.46
1227.66
1100.20
1289.99
1165.85
1009.61
740.11
776.18
1122.13
2215.87
1099.68
1024.13
871.79
1243.34
963.12
1137.38
775.99
1023.23
1047.59
1240.94
2589.67
1819.50
1829.83
1840.69
1854.92
1390.32
764.41
738.77
1068.56
1999.27
3415.94
3422.00
3434.52
1673.22
921.72
2050.94
3460.89
3515.21
3488.82
3320.10
1521.14
1472.16
3309.60
3504.66
2773.68
1421.15
863.98
1259.51
1088.22
1188.35
863.98
1210.48
1189.32
3148.47
1340.92
2047.77
2681.28
3493.44
3488.03
3516.84
3435.56
1745.14
627.98
1802.62
3519.99
3515.73
2188.09
1145.13
1903.96
2891.00
1880.03
1082.53
2774.95
3471.14
3499.15
3420.94
3308.83
1843.29
519.87
792.06
1816.27
1690.65
1923.24
1591.46
1604.17
1422.64
1246.47
1392.36
1384.10
856.05
544.05
477.71
519.20
574.92
431.71
547.59
883.41
1112.59
1355.00
1107.68
987.62
1120.29
1232.85
1525.04
1298.18
1198.23
594.80
495.13
586.27
730.44
741.98
913.38
1218.26
2551.11
2359.63
1895.71
978.99
839.22
1226.90
1008.74
1161.81
1052.73
1178.80
509.40
542.27
882.06
660.55
712.47
637.75
576.06
1161.01
1513.58
1512.09
1284.08
1056.72
1154.96
1178.84
1011.10
1215.25
819.90
896.51
1664.66
2397.92
2490.32
2837.01
1334.17
1105.88
2030.63
2343.04
1951.57
1239.84
1163.74
1144.46
1364.71
1136.94
1225.79
892.20
1023.28
2016.19
2535.48
2247.45
1455.37
629.19
2012.60
3431.10
3471.03
2879.52
1972.73
989.88
1295.29
1442.31
1402.28
1143.40
613.35
557.85
716.11
1272.87
2009.48
3513.71
3458.62
3441.90
3591.75
1513.07
1107.75
2539.49
2868.27
3412.27
2729.89
1607.40
1042.29
799.86
1605.42
1757.62
1522.35
946.31
781.65
1666.99
1928.61
927.56
1183.23
1120.66
1232.77
1125.05
1204.04
1228.03
1304.83
797.91
1320.30
1479.18
770.61
865.88
1300.40
2231.46
2608.69
2450.31
2000.81
1467.81
1179.78
1894.05
2983.32
2306.76
2159.18
1736.24
951.77
539.55
611.00
717.33
498.97
518.32
783.53
1577.92
1045.51
1203.69
1547.95
1954.81
2328.22
2102.50
1822.42
1622.62
1160.44
936.77
1237.57
1145.51
1174.05
1114.85
632.99
1447.40
2196.59
2537.44
2380.04
1249.14
1236.12
1936.89
1438.75
1501.80
1286.98
666.39
677.94
848.36
858.20
667.36
539.07
516.93
1770.37
946.88
1137.58
1002.72
1154.08
1279.43
1617.51
2701.18
3431.67
3004.31
1714.32
1547.11
658.19
1144.68
1596.81
1098.45
418.78
1153.70
1212.49
1224.63
972.44
997.35
2418.31
1208.05
1347.91
1019.31
946.45
1031.54
1495.66
2550.37
2886.63
1827.24
964.92
3215.02
2537.69
3215.43
3077.68
3424.57
3435.46
1559.30
1168.99
1110.30
1529.01
1341.20
2593.24
1286.16
1165.65
1064.63
1017.49
2207.26
3589.85
3470.92
3486.34
1301.95
1166.62
3474.74
1791.18
2228.69
2132.42
1772.85
1079.70
586.28
530.74
790.52
727.35
611.21
2584.86
1119.84
1575.50
1387.79
1086.48
1191.39
1413.59
1266.42
1409.23
1280.82
1038.27
1254.19
1545.74
1761.80
1673.93
908.47
905.91
1217.18
1862.98
1852.65
1775.39
1298.97
1556.14
1220.73
1410.91
1800.48
1424.75
1439.91
1193.99
1369.05
943.89
386.66
604.76
788.80
1472.68
1409.11
1649.90
1509.06
1373.16
1843.71
2033.89
1742.17
1566.98
1368.26
1174.96
2291.82
1868.08
1225.69
742.14
516.31
631.94
1215.43
1114.44
1267.81
1155.78
1302.12
1393.33
1236.34
1152.88
1042.70
811.35
572.25
275.30
587.57
508.17
582.14
661.41
794.70
1237.67
1134.06
1152.83
1110.61
1328.24
1264.82
1246.43
997.79
1139.37
821.78
521.26
461.75
589.30
759.46
649.41
669.66
1155.19
1386.10
1791.99
1797.97
2039.71
1567.86
1472.60
1406.98
2241.36
3171.42
3485.23
3557.84
1332.83
1192.57
2277.52
3566.08
3478.06
3493.67
2822.37
1981.10
1086.40
1025.64
1201.64
1076.62
1262.90
1410.16
1085.92
537.23
499.38
560.15
642.94
825.24
896.97
1289.68
1690.60
1621.69
1722.76
1291.23
1666.61
1434.90
1191.88
1176.06
1276.14
1190.12
763.93
757.82
564.68
506.89
1067.68
1561.91
1550.32
1277.83
1326.75
1340.47
1502.48
1205.55
1454.97
1438.76
1381.08
1186.93
1261.75
888.63
783.92
854.07
569.28
476.71
644.65
1275.11
1405.60
1432.41
967.49
1112.07
1148.76
1310.41
1745.70
1916.90
1533.76
1060.48
757.43
869.88
1211.53
1180.81
1204.79
1167.89
1458.56
1568.13
1676.13
1175.02
1029.24
1100.56
1181.69
1360.72
1542.63
1563.14
825.34
1049.12
1408.37
918.64
600.79
695.10
945.37
1198.40
1668.56
1645.96
1762.63
1274.66
1149.94
1282.00
1396.55
1304.01
700.57
605.58
664.75
889.75
787.15
1397.90
576.62
1175.46
925.79
1213.94
994.73
1235.06
1216.71
1324.50
1393.78
1577.23
1984.46
1248.56
1088.66
570.80
237.88
500.47
921.65
1065.31
1315.18
941.64
2036.15
2915.30
1258.10
1069.06
1217.94
1218.27
1229.67
742.60
545.39
555.46
495.97
568.46
1984.99
1296.22
1423.46
1758.15
1631.50
1526.47
1225.90
1016.08
1571.28
2231.66
1523.84
2898.49
696.15
718.95
688.57
1041.32
1255.67
1231.52
647.66
1078.57
1173.35
977.76
2997.73
1493.39
1415.92
1445.44
1769.52
1783.60
1757.21
1518.39
794.96
668.01
1155.28
3559.31
1744.33
1864.63
1299.80
1238.30
974.17
1210.81
1351.42
1451.36
1354.54
1260.18
3001.90
894.07
986.16
647.91
560.61
592.18
490.81
708.32
1264.25
1313.04
1117.34
1179.05
1247.05
1150.09
1300.15
1182.48
1313.93
1349.12
636.23
392.01
1154.77
1404.64
795.91
422.33
650.00
1118.02
1298.65
1141.78
1165.72
1084.89
1168.58
991.14
1313.03
1514.84
1547.27
1132.56
1118.15
1318.28
1646.40
2361.94
2453.67
2303.25
2127.42
1525.10
1171.63
1408.00
1508.27
1658.97
2028.26
1521.62
1030.28
590.90
452.16
591.07
866.89
864.38
523.45
1171.31
2137.55
2100.65
2510.68
1847.47
1526.23
1175.03
1403.71
1442.22
1666.71
1446.77
893.35
885.62
1711.03
1897.33
2187.50
1305.42
1077.56
1334.12
1045.94
1717.51
1334.28
1123.23
1101.54
1245.27
1325.75
1138.11
832.21
729.49
943.47
809.03
753.92
985.89
517.93
877.17
1281.82
1189.89
1161.39
1039.75
1363.58
1335.20
1400.74
1305.18
1428.78
1051.37
1161.29
1040.23
1101.17
1552.82
1706.47
1796.29
2215.76
1504.37
1064.97
1545.05
1653.72
1531.00
1324.12
1448.82
1234.72
1142.55
657.94
409.43
287.47
413.19
680.64
576.50
634.10
1007.80
1227.18
1037.49
1093.90
1271.29
1378.49
1217.39
1620.62
2269.60
2676.92
3143.63
2745.87
1914.86
802.39
1919.32
2667.20
1939.04
1558.54
1432.58
1864.23
982.73
1026.19
1035.41
1152.18
1133.72
1255.78
452.93
996.00
1685.76
2103.73
2216.56
1363.73
828.95
1231.99
1250.10
1179.33
1228.63
1202.25
1056.59
1181.33
1138.51
1608.74
1206.14
707.00
435.66
588.43
689.63
533.54
587.68
908.37
1409.80
1305.93
2214.63
2693.81
2339.08
1729.94
1368.00
1263.21
1188.23
1016.54
1144.48
1514.04
2115.30
1527.29
406.65
972.17
1710.28
2149.30
1793.40
1228.12
1538.51
2025.58
2529.72
1934.53
2060.59
1219.47
1194.90
1473.83
1476.83
1571.19
1102.76
631.34
571.20
1149.95
1412.43
1733.15
1261.80
2439.56
2759.46
2632.07
2115.12
1466.26
1156.42
1806.56
2367.44
2737.36
3039.69
1193.70
678.40
588.80
1239.48
811.91
1126.20
942.91
1086.97
1234.66
1395.81
2709.82
1154.73
874.71
931.29
1005.30
845.34
703.32
572.43
475.15
939.58
1291.02
2637.40
1481.11
1048.25
1263.99
1092.67
1191.73
1735.05
2918.97
2981.83
1579.56
611.19
3463.85
2006.19
1425.61
568.78
1086.26
1275.69
1074.60
1211.04
1614.03
1175.71
1221.97
2662.40
2861.93
3509.13
3069.79
1964.88
739.92
1193.45
2074.33
2135.37
1710.80
1292.72
2711.16
1426.31
1090.44
1377.49
1453.88
1359.66
1411.91
1529.16
1162.44
613.02
638.11
687.19
1033.08
1099.36
1249.64
1047.19
1140.24
1121.28
1263.51
1670.28
1596.75
1593.58
1264.19
1199.72
1307.15
1366.52
589.95
700.38
993.10
1207.15
1555.06
1064.35
1135.60
1100.63
867.16
938.76
945.07
1214.04
1332.59
1531.71
1184.08
1200.46
499.94
776.33
1038.78
1079.31
1035.14
1109.68
1579.35
1577.08
1664.70
1535.04
1399.22
1308.00
1303.16
1403.96
1973.43
2509.78
2112.65
1329.96
553.10
545.66
1159.01
1317.32
1483.43
1629.83
2145.71
2073.16
1455.68
1263.56
1233.02
1376.69
1516.95
1495.75
1678.05
1815.96
1446.44
544.25
585.79
536.57
529.48
712.76
1175.98
1231.65
1122.28
1046.93
1049.00
1114.29
1472.73
1804.20
1912.13
2398.11
2163.04
1498.05
896.70
624.33
1127.64
1571.67
933.60
1289.77
1637.72
1925.49
1826.63
1395.27
1116.34
1201.94
1492.07
1175.66
852.98
659.14
1015.38
1102.89
791.81
515.41
484.82
894.61
1189.90
1320.60
1160.57
1202.53
1305.71
1167.56
1357.25
1187.63
1343.52
583.90
427.55
448.87
423.16
950.15
1176.34
725.49
1081.57
1389.57
1371.94
1489.57
2039.55
1844.27
1361.55
1388.16
1423.48
1450.49
758.29
552.81
824.49
879.37
1343.47
1412.34
684.59
1274.46
1406.95
1037.29
1035.41
1040.91
1285.81
1710.53
1311.14
1338.61
847.23
714.83
866.00
726.81
530.23
934.50
1005.69
1729.40
2346.92
2316.64
2008.87
1358.66
1268.55
1393.54
1223.67
1189.29
1412.35
839.49
502.08
1365.31
1178.21
876.48
566.82
618.72
1488.98
1726.06
1453.89
1171.42
1277.98
1439.46
2733.03
3682.65
3462.64
2208.13
610.27
1763.69
1657.44
1559.58
1067.96
522.82
904.98
2589.39
1818.55
1281.17
1028.11
1270.21
988.99
1129.51
1215.30
1164.36
839.61
649.95
1483.16
805.19
571.35
498.32
628.68
905.55
1102.68
1174.69
1069.39
1069.24
1276.60
2047.58
1098.82
1182.97
1440.14
968.73
1019.23
789.68
489.00
461.16
885.93
598.49
2363.57
2350.79
2796.35
2074.34
1478.80
1100.12
1084.77
1317.40
1018.76
1157.07
580.35
3054.69
587.65
767.38
1211.21
1192.60
1115.69
1041.13
1087.25
1263.90
882.24
1335.02
2940.65
1148.98
1014.13
1264.67
1275.66
1059.96
759.84
812.92
1409.02
1371.50
1552.84
2782.12
3290.54
2885.38
1697.22
773.52
1336.94
2069.72
1788.25
1262.72
1149.59
518.64
2332.25
396.89
334.18
497.70
1005.28
1772.21
2634.42
2413.79
2108.72
1645.02
1104.22
1133.31
1357.75
1563.93
1676.88
1641.44
954.23
790.48
1051.51
1227.94
1420.09
1147.00
760.73
1419.20
1574.09
1545.02
904.71
1269.79
1198.95
1269.78
1257.82
1481.88
807.13
475.08
436.83
438.75
673.75
487.13
807.16
1112.12
1429.44
1083.17
1311.78
1061.13
1114.65
1098.44
1338.11
1026.20
1259.23
645.00
578.40
781.74
834.95
1167.82
778.00
833.30
1676.28
1320.66
1393.73
993.25
1150.35
2271.85
3417.23
3512.80
3437.25
3499.95
3512.58
824.16
3480.60
3463.91
3481.89
3429.89
3433.16
3466.76
3473.42
3001.32
1262.34
1280.83
1167.90
1214.37
1233.72
1300.93
1175.46
1107.94
986.17
1097.40
1144.68
1100.51
1454.67
1635.99
1770.96
1555.48
1508.80
1218.49
1497.50
1306.37
1303.45
1340.76
1243.64
846.03
677.29
307.86
687.94
1067.74
947.72
778.12
1368.18
1521.64
1466.21
1117.30
1360.23
1665.01
1731.50
1287.71
1171.72
1180.46
510.33
466.72
671.17
943.00
514.51
682.57
793.07
1290.73
1413.55
1471.32
1436.33
1643.04
1337.44
1351.90
995.03
1178.25
869.03
735.58
1018.59
434.03
776.04
498.99
839.92
1162.40
1282.21
1131.02
1288.97
1041.40
1754.81
1170.51
1212.04
1281.12
1152.33
778.40
1380.06
1666.01
1840.49
1400.59
780.06
897.80
1119.78
1252.59
1321.18
880.90
1119.02
1292.25
1183.18
1198.14
1137.68
1103.52
1569.67
1142.74
464.72
536.66
724.70
675.20
539.40
1303.36
1497.62
2392.62
2874.40
3129.06
2492.53
1717.64
1142.46
2333.74
2897.83
1907.94
649.88
749.82
1159.96
1232.73
1102.81
1003.37
1067.25
1128.19
1112.01
1006.14
1323.37
1432.00
1311.00
1114.86
1295.62
1134.81
579.67
519.27
530.05
684.14
691.02
519.62
1184.05
1415.34
1206.64
852.31
1759.69
1146.73
1246.66
1195.08
1431.15
1394.72
1252.20
1188.99
1649.98
2060.86
1937.74
1949.62
813.70
1114.01
1077.42
1136.14
947.52
1063.60
1058.82
1208.04
1164.20
1159.23
2332.67
1954.42
2043.57
2087.03
1902.91
917.55
703.71
1114.89
1980.15
1761.68
1457.48
2452.32
1055.93
1095.45
1098.42
1361.84
1231.48
508.68
692.99
697.14
961.16
1071.74
2505.42
1214.96
1663.16
1680.89
1860.70
1410.47
1113.71
1092.17
1498.28
1523.51
1319.11
3504.69
598.93
655.83
353.87
503.06
712.35
649.74
958.08
1362.08
1638.74
1114.46
2173.25
1286.96
1426.19
1171.27
1432.48
1469.37
1517.85
1506.54
1757.12
1644.94
1016.87
582.26
907.48
1326.25
1066.13
1070.78
1018.11
963.90
1133.65
1569.19
1900.92
1682.76
1528.06
433.97
1466.90
1553.82
1187.24
832.39
533.58
610.65
1114.90
993.78
1147.46
913.79
987.28
989.98
1064.83
995.03
1064.51
1324.77
1180.23
1324.65
1337.29
795.80
879.61
983.91
775.14
1225.47
1610.70
1496.15
1201.98
1122.68
1437.92
1538.88
1621.01
1563.35
1063.53
582.07
485.53
470.85
296.54
1106.29
1312.23
1099.52
1251.03
1025.17
1121.01
1485.86
1583.40
1363.69
1451.90
1455.39
1462.70
665.25
677.38
1444.58
1427.89
1070.73
418.72
476.51
1143.49
1399.14
2102.01
1813.49
1364.39
1168.54
1096.63
1493.26
1979.16
1723.52
900.09
460.15
593.02
999.92
1063.15
656.25
556.74
1098.81
1122.56
1144.73
1522.90
1195.55
1225.19
1066.11
1300.06
1160.96
775.10
722.19
726.10
408.90
630.14
955.23
720.55
902.64
1349.34
1354.08
1268.51
1461.17
1412.35
1628.35
2570.32
3380.84
2487.89
834.53
1099.76
1739.90
1756.18
1279.29
578.09
1216.97
2013.94
2326.46
2177.84
1861.00
1033.58
1029.32
2123.08
1835.04
1342.65
1051.13
411.08
504.99
1524.34
2044.46
2018.70
887.15
669.52
905.66
1113.63
1261.74
2139.45
2848.52
2641.40
2682.17
2846.02
3039.26
1996.48
1079.42
622.71
1511.50
1848.74
2619.17
2781.96
2600.69
1996.13
1359.11
1502.96
848.58
1270.97
1315.43
1279.29
1689.31
1877.65
1214.56
742.22
731.19
976.47
1307.77
282.94
542.06
1452.71
1522.08
1454.41
1240.69
1503.98
1540.48
1299.20
1113.13
1766.27
1183.48
671.92
1528.83
2081.62
1497.54
479.24
1619.49
2363.77
3506.42
2832.94
2977.48
1264.72
1304.35
1925.57
2229.97
1780.42
1694.53
2023.53
2014.75
1250.67
752.18
1517.36
602.91
995.97
791.68
1241.36
1131.53
1105.38
1074.73
1613.79
1799.19
1781.32
2537.90
1946.79
1069.96
152.90
1298.21
2381.96
2322.26
1835.67
1335.91
1452.60
1018.25
2678.26
1194.45
1292.86
1318.96
1544.02
1220.74
1255.15
1122.19
944.35
806.12
1278.68
2302.53
2105.97
1972.85
1277.75
1369.42
1279.93
1278.47
944.44
1102.48
1348.54
1136.99
3084.50
1508.50
868.84
471.74
419.08
450.46
461.62
374.21
596.61
977.29
1209.98
3216.09
1295.49
809.99
1178.22
998.35
1173.78
1214.99
1180.01
1173.59
1356.03
1157.67
2160.92
881.95
518.91
496.01
1083.02
927.91
1277.10
2230.50
3490.58
3435.05
3507.50
2228.05
1227.77
2208.16
3512.96
3512.53
2396.03
1008.45
619.50
1107.85
855.36
1056.05
788.71
1083.67
1539.94
1441.36
1135.28
1482.42
1457.42
1049.75
677.29
1239.64
1712.70
2194.70
1893.26
1728.83
904.59
924.75
1047.84
1080.69
1410.61
1757.30
1933.52
1392.27
1341.91
1462.31
1326.45
1056.68
1136.18
1114.27
679.72
604.59
1049.38
937.86
1076.50
902.60
1255.57
1101.29
1163.12
1374.14
1337.10
1225.74
1028.16
1177.79
552.02
669.09
1106.51
1549.19
1904.88
1204.93
1178.85
1356.01
1337.95
1157.38
1252.22
1665.24
2377.46
3110.86
3350.86
3025.56
1699.28
1124.79
2326.55
2600.09
2526.08
2187.36
1549.63
1227.06
1254.52
1145.52
1321.65
1175.19
1461.30
2125.93
2785.94
3470.11
3382.02
3143.08
1525.95
440.73
643.12
497.44
802.20
1133.07
2040.58
1241.70
1058.19
1678.50
2646.60
2645.89
2350.59
2281.03
1304.13
958.91
459.64
399.28
490.27
655.13
1166.43
1139.30
770.73
1023.92
1282.27
1104.92
996.37
986.04
1259.98
1510.30
1887.46
1818.45
1250.55
1148.67
478.17
1035.11
1186.52
673.56
642.84
1529.00
1870.08
1178.34
1079.36
886.97
1302.29
1410.48
2406.12
1950.06
1267.30
601.28
408.25
487.10
569.93
506.82
693.39
571.31
1190.60
1256.07
1197.18
892.92
1150.77
1065.78
1211.94
1330.94
1572.91
1377.96
874.23
780.69
1216.26
497.10
705.55
840.23
1139.06
1502.98
1567.92
1281.48
978.63
1115.32
1547.52
2176.46
2324.58
2184.88
1267.00
522.98
1639.67
2161.91
2389.48
2299.77
1762.43
1573.24
1600.65
1176.95
1371.36
2260.05
3404.32
3230.64
1868.51
1226.33
1711.16
1784.46
1194.47
1306.72
643.56
1019.99
743.60
566.54
1578.89
1403.05
1475.15
1332.51
1269.44
1417.52
2139.03
1678.69
1254.44
1250.68
1253.78
809.69
525.40
1033.62
1584.74
1783.96
1308.28
2170.82
1298.29
1074.15
915.83
1188.47
1157.74
1227.21
1633.91
1894.99
801.95
577.08
1593.86
635.45
551.77
781.82
953.74
1205.28
1497.20
1671.65
1464.46
1303.79
1331.40
2400.05
1191.61
1384.68
1594.56
915.66
1228.95
930.32
383.36
698.80
1259.93
1137.82
3498.24
1284.57
1227.11
1051.20
1054.19
1189.79
1299.06
1184.17
1909.79
2397.20
2856.57
3365.11
1251.16
716.79
593.97
939.03
839.60
1121.54
1077.38
1104.14
789.07
1128.35
2207.96
1065.44
1134.59
1182.24
1321.09
1578.81
1121.64
517.86
638.68
1091.54
1146.39
921.21
1155.66
1193.97
1096.70
1189.01
1361.68
1348.69
1378.42
1401.91
1563.23
664.30
564.05
889.14
857.26
892.84
1318.90
969.55
1680.41
2176.34
2359.02
1790.74
1979.51
1631.11
1622.70
1182.30
1150.04
1103.84
541.65
281.10
547.24
789.05
842.12
883.73
760.47
1307.34
1499.54
1492.36
1087.48
1065.20
1144.64
1402.43
1362.51
1110.90
776.30
515.26
270.01
824.39
713.42
845.35
1311.97
1387.41
1641.53
1404.03
1495.88
1188.11
1403.51
1161.89
1302.63
1514.29
1629.67
878.64
795.68
671.69
492.08
340.03
1003.98
894.10
1267.78
1124.55
1100.51
1066.40
1656.47
1625.68
1282.09
1092.65
1484.61
1798.42
1600.11
1246.48
1038.76
1184.01
982.33
585.99
1307.98
1243.36
1143.89
1024.08
1080.59
1134.75
1220.96
1285.25
1488.29
1416.98
741.87
499.75
473.50
475.99
707.42
726.57
922.32
1136.22
1001.57
1076.35
1172.88
1222.88
1524.55
1243.15
1270.58
1464.83
1511.00
1117.85
1518.85
1251.04
965.15
547.14
589.27
804.00
1593.85
1482.39
1219.14
900.62
916.67
1262.10
1098.27
1092.14
1118.24
1042.09
429.67
550.45
446.69
692.93
1352.42
1119.25
1302.46
1170.69
1666.08
1533.28
1166.99
1292.67
1025.46
1238.63
1508.43
1665.01
1441.33
1479.18
847.48
959.73
555.60
784.29
1111.31
996.80
1071.62
1392.03
1214.19
1020.63
1516.64
1239.49
1196.89
1259.19
1242.39
510.39
409.15
546.44
779.79
576.51
661.24
852.05
1014.72
1078.61
1115.93
932.58
985.95
1092.46
1173.61
1294.90
1631.63
1571.54
1355.40
923.88
636.04
973.34
1596.29
1442.71
1755.68
2108.70
1816.45
1347.37
858.11
1720.91
1198.56
1216.41
1310.06
1062.95
999.65
1017.78
1054.48
1036.59
1016.01
995.37
1588.04
899.12
1110.52
1249.64
1125.43
1463.41
1351.62
1092.53
1255.18
1245.25
1083.79
1786.08
362.67
595.99
1416.87
1883.59
1179.75
701.78
1239.80
1270.31
1068.58
993.11
2163.28
1405.68
1684.93
2162.22
2709.37
2732.56
1569.88
954.18
2712.32
3080.14
3063.22
3435.96
2692.03
2143.85
1162.28
1048.49
997.27
1164.79
1269.71
1165.21
1004.86
1248.54
2730.82
1232.19
1753.24
1419.40
1096.41
1114.24
1070.57
1657.30
2100.76
2850.90
2488.69
3464.54
1191.12
1085.84
1159.88
1008.17
1219.00
826.01
317.71
682.88
460.51
749.72
1424.50
495.87
1113.35
1366.25
1274.63
1420.48
1377.78
1346.83
1369.47
1107.96
1451.04
2389.92
673.08
591.09
480.03
595.33
600.60
808.34
929.16
1647.37
1512.35
1219.12
1151.88
1118.12
1171.05
1060.14
1048.64
1377.84
1028.29
829.99
672.26
602.36
584.45
400.83
509.32
1006.58
1057.90
1193.26
997.89
1036.03
1205.18
1044.71
1339.31
1159.19
1336.35
610.86
1048.76
2046.11
2298.51
1857.70
1668.17
1648.68
2358.92
1642.56
1088.69
921.74
1011.96
1221.84
1407.77
1041.58
1307.49
1265.76
451.79
578.92
856.90
553.81
561.36
1021.60
573.32
1223.07
1145.27
1454.18
1157.72
983.11
1226.26
1306.27
1459.51
1583.20
1145.01
913.19
1329.28
2141.97
2266.66
1271.74
612.16
955.65
1100.60
1251.40
1070.61
1193.86
1587.41
1213.26
1295.14
1304.78
1251.97
754.61
873.46
678.29
746.92
1013.39
1291.25
533.03
1188.09
1010.57
1024.75
1028.22
1133.25
1345.13
1461.15
1255.36
1358.25
1642.76
993.71
1076.89
1291.38
1212.66
1172.67
933.07
493.43
1125.02
1138.57
1305.23
1736.11
1650.72
1220.95
1275.18
1644.22
1722.97
1070.28
535.23
578.43
765.29
532.20
992.79
929.23
922.09
1288.62
1152.24
1073.01
1168.07
1131.13
1263.13
1101.71
1149.69
1477.28
982.43
1194.83
826.10
511.77
462.76
612.47
520.68
998.50
1178.46
1211.51
1287.70
1743.99
1615.15
1331.91
1128.66
1275.74
1097.84
661.45
943.56
675.78
608.68
1232.96
521.16
825.45
1175.62
1397.36
1143.32
818.87
1291.50
1516.56
1361.41
1320.56
1495.86
601.00
960.11
853.41
518.68
774.98
891.33
1119.94
1437.17
1527.76
1837.03
1667.51
979.86
1118.05
1228.14
1263.54
1226.91
1250.51
1656.13
3457.12
3396.48
2363.34
1370.12
679.09
2101.10
3463.64
3365.41
2619.84
1545.07
1477.74
1561.44
1396.01
1191.31
2295.70
1541.17
999.53
714.65
695.42
736.34
791.55
1206.81
1837.65
2849.55
1857.11
2035.12
828.27
1149.84
1414.59
1184.86
1457.37
1832.75
1515.14
836.00
615.12
916.77
2034.28
767.08
1094.11
1309.61
1983.93
2235.11
1672.37
1211.89
1362.74
1110.44
1241.84
2952.67
1197.35
552.32
518.14
476.46
415.86
581.14
512.05
537.22
1180.65
1404.35
2619.64
1237.92
1328.70
1205.02
1295.36
1462.32
1356.80
1326.77
523.58
872.44
1247.21
3392.25
601.74
587.59
857.90
838.20
1289.25
1136.97
1084.62
1117.65
1207.91
1065.98
3204.21
1935.27
1834.89
1828.17
1325.59
740.61
919.65
1120.67
1138.95
1108.76
1330.02
1505.53
1059.89
995.81
1185.24
1061.89
1717.90
1639.52
1596.01
584.18
562.24
596.90
895.57
1238.96
814.38
579.63
1120.15
981.56
1228.16
920.45
999.52
1083.21
1215.07
1216.20
1278.17
1147.46
607.67
918.08
1802.22
2714.78
2321.28
1128.40
557.01
1388.37
1186.81
1131.16
1009.01
1287.08
1970.57
1419.46
1157.58
1259.93
894.87
1027.21
819.19
736.80
1268.63
1566.68
1162.87
1418.92
1281.39
1069.65
1210.63
1272.29
1188.58
1321.65
1426.36
1285.88
1606.05
895.54
778.09
777.93
806.02
472.00
388.52
355.31
1205.87
1069.22
1259.12
970.48
1323.01
1366.14
1280.85
1092.40
1290.58
1104.51
508.72
404.68
427.68
606.77
613.77
704.91
732.91
1151.31
1143.30
1198.24
1206.88
1184.84
1126.91
1249.45
1244.37
1119.37
1083.75
1022.09
968.48
1133.30
857.17
650.17
672.96
1111.11
1433.82
2000.85
1871.15
1894.01
2068.72
1734.82
1690.86
1280.07
1231.57
1366.23
1358.82
1541.87
993.57
454.47
706.11
705.64
1010.70
1054.52
1153.02
975.02
898.59
1159.21
1097.79
1103.40
1315.72
1246.81
930.66
449.66
680.13
1055.94
925.42
1060.39
1724.59
2800.40
2887.08
1856.11
1092.63
939.63
1213.54
1307.65
1488.34
1354.47
766.30
565.40
494.24
955.98
443.73
403.55
624.38
1015.48
1211.39
1150.75
1052.88
1187.00
1268.42
1436.58
1781.91
1258.37
1236.26
572.93
958.94
1137.86
1390.81
1259.37
916.79
638.07
1034.23
1493.71
1169.80
1073.36
1007.02
1440.83
1262.95
1461.84
1498.81
1413.35
1187.39
908.27
925.38
500.99
726.57
1740.80
2144.90
2323.85
1534.26
1083.95
1118.11
1540.83
1445.40
1936.90
1030.40
1259.03
989.99
491.53
989.60
1417.12
1329.87
972.87
573.67
1064.72
2036.65
1111.81
1223.29
1121.98
1574.87
1341.21
1578.71
1532.11
1389.69
605.57
726.19
1611.79
510.26
689.34
553.43
430.37
1292.42
1247.06
1246.01
906.81
1155.10
1160.80
2236.38
1356.84
1430.73
1169.33
776.96
671.69
546.66
324.66
988.18
1058.85
1361.95
2596.34
1153.39
1149.05
992.52
1186.89
1486.81
2003.91
1630.26
1414.77
755.84
1270.07
3387.57
500.55
671.76
497.34
755.09
1177.85
1323.69
1372.89
1693.81
1332.30
1181.40
3563.99
1311.15
1445.70
1228.64
910.13
718.29
802.23
671.23
938.28
283.07
596.71
3164.69
1294.40
2095.53
1445.97
1211.10
1233.70
1294.01
1212.24
1129.68
1217.39
763.24
1107.32
645.63
804.91
529.76
432.36
511.81
1088.08
1042.20
994.85
1027.11
1073.99
1118.92
1159.00
1381.78
1460.33
2275.76
2638.01
2399.78
2090.25
1321.26
576.96
1025.08
1421.18
1392.44
976.35
1023.44
951.81
1206.22
1080.70
1222.57
1355.46
1445.99
955.59
651.47
725.67
640.00
608.48
835.48
537.39
1777.57
2506.34
2150.37
1065.65
1160.83
1142.54
1203.08
1247.30
1266.97
1370.18
806.22
867.53
1173.63
1099.51
1074.57
1014.88
1311.08
2245.68
2041.01
1322.15
859.38
1294.34
1634.95
1075.77
1253.55
1209.28
541.74
487.32
710.59
996.56
655.84
691.92
683.29
945.55
1279.12
1375.90
1079.54
1011.22
1134.90
1474.00
1641.14
1587.22
1223.57
614.77
628.97
1118.97
1355.71
1316.19
1299.72
972.69
1531.97
1094.19
1156.44
865.40
1009.22
1267.54
1304.82
1362.63
1418.37
1186.36
583.08
547.79
535.44
461.61
561.60
625.07
684.09
1207.96
1140.68
1126.63
989.22
1249.50
1100.91
1319.78
1462.85
1956.92
2216.48
1281.42
879.49
1208.78
1620.58
2012.87
1584.62
1397.30
1195.19
1167.44
1059.15
1097.40
1028.19
1180.69
1232.37
1275.70
1466.77
1326.32
1713.68
560.11
586.27
735.28
1202.56
976.79
1219.00
1048.29
1094.35
1386.62
1885.81
1429.55
1041.26
1249.11
1098.95
1297.99
897.97
920.26
919.78
996.50
881.34
679.48
1199.63
1267.62
1200.04
1299.52
1169.70
1395.33
1162.44
1271.06
1284.06
1220.63
787.32
943.52
558.81
538.09
762.92
1647.00
1755.26
1600.69
1089.62
1169.12
1031.92
1129.29
1465.16
1118.18
1077.60
1314.75
1323.39
971.26
1174.75
1477.69
1418.56
1159.62
1147.81
1978.96
2299.19
2718.88
2406.89
1286.93
881.12
1457.72
1928.40
2105.00
1496.84
1481.57
1532.31
557.88
904.40
727.85
1167.81
1170.64
875.99
1225.79
1904.10
2048.86
1291.91
2107.14
1134.10
1237.60
1151.44
1183.82
1463.82
2220.83
2353.36
2323.52
1989.52
1657.72
2123.14
1771.14
1860.45
1949.03
2117.99
1269.40
1111.45
1164.29
1357.47
1337.15
1877.72
3596.78
598.46
797.37
958.29
1027.19
744.88
598.87
1804.57
2182.06
2189.78
1415.93
3462.12
992.81
1173.86
1174.67
1530.25
1478.94
1113.44
599.48
522.56
457.52
436.18
2738.29
874.06
1789.16
2086.56
2301.55
1550.14
1392.22
1310.21
1172.65
1650.59
1679.31
3410.37
661.00
973.40
1107.58
1128.67
711.36
623.96
968.89
1072.40
1087.30
1168.23
1626.78
1207.37
1156.37
1248.26
1233.96
1160.79
682.80
704.10
974.76
1152.21
1198.03
1230.50
1270.70
2264.92
2400.96
2336.06
1865.75
1791.19
1250.09
2147.29
2849.05
2158.93
1820.77
1112.39
544.80
484.66
317.46
514.92
401.63
563.81
1098.43
1209.59
1043.29
926.56
1099.00
1438.21
1460.87
1578.11
1991.97
2146.30
1637.36
1361.33
1167.35
821.51
715.11
643.96
922.65
1277.94
1237.84
1048.88
916.50
1168.93
1119.61
1093.95
1519.30
1495.31
792.62
1152.05
629.18
765.13
620.95
565.51
570.26
1052.41
1001.94
1184.03
1203.99
1084.70
1610.95
1989.96
2229.26
2139.01
1430.13
488.25
439.90
662.39
527.99
841.24
755.11
585.39
1234.93
1241.68
1356.69
1210.03
1035.73
1164.13
1177.38
1181.31
1260.05
791.16
1194.79
1368.07
1389.75
834.20
470.70
752.50
994.82
1074.61
1160.65
1059.52
1029.82
1181.89
1195.64
1387.23
1342.40
1390.92
697.70
692.99
443.15
553.32
702.85
1107.13
741.94
1377.80
1504.48
1246.96
941.68
1161.73
1214.86
1317.20
1151.16
1152.24
1369.25
869.07
880.40
828.76
600.01
736.30
743.92
556.84
1215.96
1199.96
1053.15
1638.27
1100.88
1208.24
1291.91
1477.42
1285.45
683.35
983.18
1116.36
1051.13
1283.98
1609.42
1000.01
1195.72
1234.13
1244.54
903.73
1124.43
1190.35
1095.47
1059.46
1271.99
1754.98
608.70
505.11
515.06
738.54
841.87
724.03
768.64
1407.05
1278.48
1508.44
1661.99
1033.22
1114.74
1151.20
1184.58
1234.35
1283.75
802.93
697.83
929.24
764.40
1136.81
482.77
565.58
1265.68
1574.39
1565.96
1422.64
1567.40
1522.81
1401.48
1312.78
1910.67
879.61
695.12
828.19
859.77
761.37
603.72
515.08
979.24
1140.62
1239.07
1773.38
1113.37
1099.33
1571.74
1913.74
1637.96
1083.65
667.20
447.07
638.20
643.63
2079.96
1799.02
1503.52
1957.96
1535.39
1453.90
1115.10
1137.88
1545.56
1402.47
1200.54
2295.16
1341.93
523.47
388.17
867.06
1232.10
685.71
498.76
1057.88
1184.27
1262.29
2795.22
1209.15
1384.65
1315.12
1145.08
1410.12
1210.92
806.42
969.67
1266.51
1836.58
2781.09
1858.35
1368.50
1456.90
1242.63
1222.52
1499.61
1321.69
1462.63
1486.63
1601.93
3453.64
1520.02
661.33
695.88
919.02
950.75
535.08
687.60
490.38
1698.80
1575.81
3559.21
1103.75
1376.14
1365.86
1398.37
1389.50
1312.03
1476.82
913.81
809.91
542.13
956.98
739.57
745.73
875.96
1452.23
1702.49
1670.06
1472.54
1411.99
1188.18
1290.90
1200.42
1409.14
779.75
496.65
740.74
725.52
474.44
685.97
562.33
1125.47
1420.17
1278.79
1237.71
1141.40
1145.03
1226.80
1299.82
1408.72
1409.14
956.63
959.90
739.65
476.13
577.61
770.25
1024.64
1880.59
2065.37
2440.69
2572.26
2640.06
2565.82
1441.89
1434.29
1516.54
2713.49
3344.48
2916.62
1563.35
607.87
564.01
778.19
1099.88
1605.88
1566.41
1368.91
1278.03
1134.35
1273.88
1492.94
1343.58
1485.94
1151.36
986.02
682.26
933.90
890.82
784.90
764.88
1211.69
1383.76
1310.43
1247.44
1359.03
1330.73
1428.12
1400.20
1455.00
1582.76
923.73
857.84
609.17
781.75
1646.01
1398.44
648.84
1469.68
1693.69
1690.40
1120.47
1234.40
1407.73
1356.90
1326.11
1288.41
1352.82
1728.33
2048.09
1607.03
806.53
857.54
1133.89
694.63
1251.39
1499.33
1463.26
1209.12
1364.13
1377.69
1453.59
1451.71
1585.74
937.07
761.24
775.58
468.95
494.64
519.27
611.76
1189.79
1330.63
3168.74
1760.09
1889.84
1310.34
1329.30
1539.02
1442.17
1314.04
526.99
648.84
715.20
2453.88
721.31
700.75
435.66
1356.22
1300.85
1168.14
1011.22
1137.39
1265.05
1430.92
1519.15
1745.86
1471.01
960.82
1739.75
1517.50
1474.07
932.08
624.79
944.49
1233.20
1279.07
1166.02
1061.20
1218.79
1329.47
1264.83
1255.70
1295.39
969.68
561.84
1070.11
808.45
1066.71
994.31
579.08
1204.07
1422.78
1286.61
1241.53
1340.51
1643.47
1594.02
1586.56
1598.46
1260.03
585.16
524.68
626.30
861.59
390.84
644.29
813.76
1179.10
1458.89
2119.87
1145.61
1055.24
1255.49
1269.41
1219.47
1297.90
1403.67
930.67
1317.62
1068.31
1251.33
861.39
816.84
909.53
1234.44
1295.79
1576.77
1456.28
1536.94
1559.73
1349.06
2114.58
1384.06
792.04
264.18
519.49
497.60
569.08
466.89
821.87
1212.98
1186.16
1228.35
1096.89
1146.21
1244.69
1199.04
1257.87
1281.32
1417.65
1269.85
1081.39
764.23
702.72
710.10
729.41
635.59
1111.14
1172.19
1090.74
999.21
1409.06
1622.24
1679.12
1074.08
1786.94
1422.36
971.81
1155.99
1280.64
1662.26
1754.55
1132.17
1084.57
1376.71
1888.23
2008.01
1132.74
1137.50
1258.51
1251.70
1280.23
1220.61
1258.41
825.78
440.30
642.31
1179.26
1074.67
968.36
1621.43
1732.19
1726.77
1527.36
1426.85
1500.45
1352.62
1421.48
1640.68
1434.74
630.14
590.35
720.70
698.58
532.64
694.74
625.35
1491.03
1327.55
1783.25
1163.89
1130.85
1280.13
1143.19
1329.39
1646.63
1451.65
1112.14
582.10
478.41
1451.90
569.09
744.37
992.50
1358.54
1282.60
1412.17
1157.41
1435.24
1373.13
1324.63
2070.36
1563.67
957.28
700.83
422.67
493.80
518.90
694.06
424.62
1163.44
1004.07
1263.06
1282.13
941.29
1290.52
1150.59
1247.01
1193.62
1401.23
687.57
487.40
982.54
1008.39
880.24
569.34
829.90
2088.83
2952.71
2566.12
1891.18
1705.47
1553.71
1663.26
1353.13
1382.34
1294.40
743.98
505.77
724.82
946.16
777.59
674.85
891.74
1258.34
1585.23
1792.45
1259.18
1131.66
1406.94
1394.09
1705.84
1470.33
925.19
466.58
489.74
694.52
1527.15
396.02
736.00
1447.38
1545.83
1401.69
1236.86
1034.65
1252.28
1092.50
1286.58
1640.14
1789.01
1362.10
1304.15
876.72
429.83
1411.23
2330.76
2195.00
2244.08
1739.95
1228.34
1082.21
1352.42
1699.60
2063.18
2181.75
1909.54
1769.44
1126.83
598.68
857.55
748.64
804.13
1085.59
1335.13
1831.84
2019.55
1561.82
1098.62
1080.03
1282.88
1156.71
1649.88
1603.81
1218.00
687.68
350.56
1287.25
2247.73
1907.97
1189.95
1468.20
1189.38
1115.51
1213.69
1358.81
1471.60
1613.28
1340.50
1423.76
1870.27
1969.49
1691.10
1436.92
814.31
666.44
850.77
932.77
1527.44
1186.93
1277.17
833.00
1201.97
1282.44
1201.41
1341.21
1342.93
1270.05
781.77
596.39
1126.91
1004.34
628.24
466.94
1054.59
1076.33
1329.75
1279.45
1148.91
1266.67
1660.23
1608.73
1516.99
2125.96
2040.75
1532.35
1096.83
451.29
595.36
650.69
631.93
923.97
1316.61
1219.52
1244.27
955.94
1168.01
1209.55
1483.04
1352.11
1242.69
520.16
696.57
1081.93
1500.50
1314.89
1240.49
1070.53
1210.71
1339.74
1373.11
1369.43
1223.74
1223.17
1544.85
1313.19
1259.45
1439.49
1033.28
815.40
887.95
729.14
963.86
1795.93
1961.15
1375.63
1241.09
1157.40
1049.55
1452.05
1312.54
1433.11
1780.69
1441.85
860.33
585.44
599.19
634.86
590.85
508.90
1004.84
1200.51
1448.62
1632.19
1394.00
1350.97
1254.08
1587.35
1350.27
1558.10
1390.15
810.20
583.50
807.47
1494.87
856.29
879.55
758.77
1732.65
1644.34
1238.07
1180.58
1445.83
1373.77
1207.60
1674.51
1595.18
1654.95
1376.62
1461.22
957.31
906.50
680.54
716.68
1316.39
1252.92
1685.58
1198.38
1340.85
1261.45
1243.07
2071.46
2737.19
2498.72
1590.65
637.49
730.52
1431.06
1336.98
1726.83
1401.31
1520.59
1248.56
1474.92
1244.51
1478.32
1441.39
1368.42
2160.81
1279.15
1391.79
537.94
945.17
1187.18
1328.35
554.77
718.90
774.20
1134.75
2613.74
1197.22
1178.89
1165.53
1177.41
1326.07
1330.68
1253.12
1256.93
713.29
519.01
1972.79
595.94
735.86
638.29
995.37
1572.41
1288.42
1120.00
1176.21
1373.57
1257.29
3054.02
1316.79
1366.83
792.08
647.13
964.03
824.50
576.35
1032.47
943.50
1410.96
3446.25
1385.13
1237.70
1208.68
1450.91
1387.67
1790.28
1817.97
1680.89
1671.71
1312.15
2538.87
666.37
1157.01
918.70
577.08
1538.58
1721.79
1670.49
1118.35
1091.31
1178.08
1420.67
2024.63
2667.53
2314.26
1579.80
1082.34
789.72
1737.24
2828.75
2824.74
2256.80
2391.88
1493.22
1285.34
1090.48
1191.21
1155.64
1145.91
1155.85
1185.29
636.79
581.11
479.97
689.94
958.95
788.45
514.91
1285.94
1189.57
1565.61
1806.25
1988.47
1612.07
1440.76
1237.06
1418.72
1279.76
548.95
607.95
710.07
798.86
881.44
638.64
645.63
1167.15
1155.26
1316.17
1262.57
1145.41
1208.40
1278.19
1191.80
1267.04
1351.05
440.90
379.96
819.92
966.92
714.54
845.95
1408.16
2594.99
2186.64
1512.44
1147.20
1125.79
1302.15
1373.87
1150.66
1310.14
1135.42
788.78
564.30
487.28
1169.19
1922.13
1606.95
1592.50
1345.98
1078.11
1131.65
1365.84
1601.91
2227.26
3137.81
3463.42
3367.61
2900.60
883.17
1271.04
2267.59
2238.75
2563.03
2444.14
1649.68
1319.87
1323.51
1109.75
1434.08
1563.15
1474.00
1497.74
1053.89
1143.48
821.47
1224.63
1286.19
1344.73
1506.45
1029.59
717.26
1508.22
1387.79
1613.19
1552.47
1527.37
1260.88
1071.93
1289.97
1270.87
1039.49
1123.05
899.41
828.88
510.91
464.82
642.90
1140.23
1718.56
1878.16
1529.06
1624.45
1503.06
1525.05
1333.96
1345.29
1273.51
573.32
731.09
480.94
887.36
911.17
511.47
447.23
1633.96
1264.12
898.20
1087.96
1102.29
1158.56
971.78
1188.59
1119.21
1227.83
885.63
1176.16
875.97
480.38
748.04
613.96
637.74
1399.10
1015.52
1092.36
924.51
1166.41
1449.45
1260.66
1300.47
1302.32
789.47
487.16
485.63
545.06
787.35
917.17
925.87
2406.32
1247.77
1188.50
1239.36
1012.23
1046.51
1276.19
1173.89
1260.62
1230.15
842.54
2485.38
1187.20
1428.26
1012.49
1028.24
518.30
1185.93
1162.90
1341.85
922.34
1109.05
3472.31
1180.95
1186.10
1424.32
1529.14
941.50
544.87
519.25
525.56
891.02
979.62
2527.53
1644.29
1492.70
1361.16
1303.37
1276.90
1000.58
1202.83
1291.70
1297.95
1009.27
3277.16
1330.36
664.33
858.96
1083.15
973.88
1117.85
1226.15
1054.53
815.87
1089.70
1108.25
1153.77
1259.34
1180.14
1087.22
546.07
611.03
618.54
420.78
666.15
499.50
518.54
984.77
948.81
1135.61
1005.17
992.46
1272.77
1581.13
1848.82
1960.72
1480.69
714.42
456.69
730.55
687.93
637.77
861.03
1004.07
1373.12
1425.46
1291.37
1285.10
1619.53
1698.14
1188.78
1239.13
1347.55
607.94
534.96
557.32
586.65
576.62
592.94
955.81
1216.17
1250.11
1250.28
1105.37
1262.51
1264.08
1403.62
1249.44
1294.37
1270.75
917.50
865.44
975.65
957.90
962.40
794.12
1024.14
1536.96
1564.99
1701.19
1410.58
1515.73
1211.04
1335.33
1375.67
1356.94
1389.36
463.63
688.37
744.90
829.35
565.82
658.51
1276.67
1545.80
1221.99
1273.76
1125.04
1153.09
1175.29
1201.28
1219.35
1247.61
550.36
453.41
719.79
903.18
1056.44
1270.99
1432.85
2034.48
2339.99
3057.37
2757.01
2053.34
1625.44
1557.88
1333.81
2170.90
2197.07
1930.12
1404.05
794.64
443.75
547.35
565.20
435.56
1431.71
1395.32
1213.00
1173.56
1130.59
1275.54
1243.42
1332.43
1419.93
1525.27
954.53
1206.41
931.47
756.57
802.76
759.74
860.89
1257.53
1311.06
1388.34
1627.71
2515.73
3104.36
2813.44
2031.28
1473.29
1094.62
1877.43
1827.47
1543.64
916.12
489.87
539.82
1947.19
1035.22
1226.36
1405.13
1254.39
1071.39
1146.15
1227.11
1141.43
1168.63
899.54
2058.05
1481.54
1284.77
927.62
643.76
953.60
1472.92
1760.26
1577.90
1761.11
1908.06
2396.22
1041.28
1252.16
1244.40
1063.53
580.31
981.24
751.51
573.40
649.61
665.71
2378.39
1276.11
1246.57
1272.29
885.27
1258.57
1185.17
1338.01
1144.92
1133.27
1050.07
2507.16
883.35
593.92
983.26
1741.45
1850.79
2244.27
1622.64
1105.61
946.19
1146.71
3472.87
1349.80
1112.65
1338.22
1366.88
980.77
959.58
1117.06
969.14
575.11
784.59
3287.39
1142.40
1754.24
2696.92
2507.44
1263.27
2004.67
2825.98
3479.45
3460.92
2338.10
3424.22
1123.37
697.50
559.38
890.66
531.28
400.51
1371.46
1408.21
1147.07
1303.46
1420.33
1698.20
1263.22
1158.20
1279.16
587.32
745.14
560.70
633.45
769.47
355.59
459.63
1081.68
1176.61
1187.29
979.35
1193.43
1246.40
1549.71
1548.98
1595.14
1489.21
850.84
713.44
436.11
514.03
718.75
982.40
1014.07
1785.84
1788.55
1441.01
1093.75
1273.84
1429.71
1252.85
1186.35
1275.34
1325.72
636.46
985.22
1208.16
541.31
485.02
914.34
1380.66
1495.49
1844.63
1234.12
1031.51
1110.61
1273.27
1543.13
1376.84
1144.24
817.67
1123.80
754.92
1029.06
758.98
711.00
802.91
1134.39
1083.71
1541.06
1233.63
1120.33
1461.36
1257.35
1277.49
1299.26
1394.99
847.64
1105.48
782.55
783.67
523.10
762.49
719.21
1225.82
1354.85
1148.79
873.70
1164.10
1333.66
1186.70
1180.89
1217.68
1246.68
1270.36
788.83
688.65
534.77
943.12
794.55
982.12
1351.47
1505.34
1430.61
1334.94
3287.47
1262.11
1202.78
1107.22
1011.23
460.02
498.50
513.64
838.01
383.68
636.42
398.49
1287.05
1239.76
1036.89
1136.49
1158.37
1204.67
1316.64
1199.25
901.38
1492.63
1352.10
1954.96
1423.32
827.19
774.83
638.24
1059.59
1114.40
1352.96
1116.42
998.45
989.56
1826.54
1852.05
2543.52
3326.87
3337.93
2132.23
1258.14
624.75
1090.22
1729.75
2095.11
3069.02
1961.37
1237.80
1094.58
1099.57
883.67
1339.96
1077.44
1139.13
1280.00
1107.97
1706.70
945.54
971.19
1176.76
1200.10
1131.85
1357.42
1450.77
1025.55
959.66
840.75
2130.01
1133.86
1187.30
1090.54
1067.57
762.88
581.72
442.18
519.23
854.68
768.65
1835.71
918.85
1159.36
1239.87
911.79
1118.20
1010.37
1240.37
1423.65
1373.51
1317.33
2677.29
957.21
1139.69
1122.69
1182.56
1004.16
906.77
1128.76
1096.68
1005.06
852.22
3550.15
1393.18
1536.27
1689.21
1220.43
487.69
1179.35
1659.90
1631.49
665.30
731.60
3048.05
1171.63
1103.99
961.06
971.70
867.81
1254.67
1109.50
1232.34
1212.70
1143.14
1846.97
916.58
1150.54
760.39
730.27
589.80
748.25
1554.77
1555.97
2109.38
1939.21
2178.82
2136.16
1675.51
1305.36
1149.20
1059.36
602.28
462.06
377.25
589.32
655.79
941.27
1008.81
2120.77
3513.19
3074.52
1531.90
962.46
1342.38
1524.02
1833.64
2014.53
1495.87
1109.34
884.52
855.66
576.67
481.06
699.71
1419.34
1490.09
1497.65
1509.40
1206.63
1415.10
1372.36
1835.06
1335.72
1333.63
414.11
449.33
648.07
521.70
536.80
843.04
593.75
1140.58
1115.92
1072.07
856.91
904.87
1027.21
1213.60
959.22
1139.92
824.73
747.84
683.29
410.39
521.74
747.90
625.81
889.58
1604.53
1685.61
1454.08
1182.28
1186.75
1230.54
1188.81
1198.96
1089.80
896.25
1009.53
1576.30
1576.96
1074.29
406.08
957.58
1456.56
1771.93
1897.11
1267.87
1261.45
1271.15
1159.33
1069.94
1163.07
1498.84
1255.80
1583.63
1537.73
1357.92
1444.79
1322.48
1155.60
1850.54
1835.38
1754.01
1071.78
1117.08
1242.14
1525.77
1711.39
1754.29
1333.08
539.71
1525.25
1539.20
964.67
363.49
592.18
1048.62
1311.66
1395.12
1438.13
1218.58
1440.11
1323.85
1097.97
1145.74
1149.78
561.27
488.68
492.66
704.68
781.53
978.43
1283.20
1516.94
1463.76
1371.83
931.75
1082.21
1387.85
1267.20
1668.37
1845.37
1543.93
774.30
522.56
806.00
931.30
301.66
276.66
963.49
1126.33
1138.36
1203.91
1079.11
1252.75
1097.59
1246.67
995.84
1336.31
1020.93
1027.63
590.45
573.44
326.91
573.28
447.04
882.07
1478.92
1599.37
1560.82
1825.11
2415.94
2239.01
1496.94
1235.25
1193.98
902.59
984.99
1054.14
802.57
661.71
693.26
799.04
1171.48
1007.00
1205.80
1219.92
1344.71
1695.11
1820.91
1417.40
1171.60
1179.94
1321.10
1058.59
775.20
802.24
382.66
606.43
859.05
930.92
1126.98
1172.86
1060.55
1812.87
1588.92
2032.48
1567.37
1360.85
997.08
412.09
659.27
1121.75
1335.68
730.60
1798.94
513.19
934.22
1131.21
1090.62
1096.90
852.19
1093.78
1186.93
1209.25
1289.16
2750.26
569.07
339.73
516.27
599.29
639.82
669.52
1076.71
1398.79
1392.58
1040.19
961.27
1637.00
1118.59
1468.04
1243.00
1757.08
1329.99
666.66
569.03
589.59
807.95
880.82
1104.99
1195.98
938.11
1019.54
949.47
1042.82
1328.76
1378.24
1209.46
1456.59
1097.82
2172.72
1559.56
1567.43
813.42
513.71
1209.21
1189.80
1164.89
1326.44
1571.10
1443.16
2535.27
1119.67
1237.84
1168.07
1106.87
855.54
805.14
849.97
440.29
520.59
418.44
2716.13
1123.94
1118.65
1117.27
1012.00
988.35
1192.24
1069.81
1351.29
1048.82
1096.71
3160.10
879.09
1214.41
1863.10
1536.97
1460.76
1108.31
1573.21
1331.74
1334.65
755.78
2329.78
1122.74
1542.22
1428.48
1407.07
1051.90
473.00
968.82
1709.82
1874.75
1638.90
2287.06
611.53
973.33
1248.43
995.34
913.63
860.14
1064.86
1065.38
935.08
1091.96
784.25
781.25
949.13
1168.41
1647.17
1641.15
1454.67
1443.42
1487.59
1567.47
1476.45
1316.12
1371.86
1119.50
1007.29
1070.76
1281.01
636.37
563.91
567.59
651.74
528.78
573.90
638.33
968.47
1351.46
1330.17
983.09
1218.32
1262.24
1121.97
1051.65
1341.20
1225.61
952.31
705.26
1264.25
971.77
480.95
644.62
883.73
1227.68
1525.21
1396.86
972.90
1643.35
1386.15
1423.25
1491.27
1222.15
680.55
400.01
372.77
635.67
607.33
572.19
486.16
1113.32
1082.81
1072.73
1135.32
1161.00
1485.27
1172.73
962.00
1042.77
1125.52
546.39
513.15
443.12
875.41
961.16
1785.78
2478.20
2557.60
2116.20
1954.68
1903.40
1971.40
1391.57
1117.98
1675.91
1613.69
1768.31
1665.38
645.97
692.90
587.04
751.11
979.42
887.86
1199.98
899.93
990.74
1039.46
1026.39
1077.07
1497.99
1221.61
1110.59
1569.97
1675.78
1427.37
916.18
414.80
1679.47
1860.10
1202.58
1127.29
1517.94
2056.34
3020.68
3318.01
3407.43
2949.07
1732.18
1268.81
1970.41
3233.63
3579.77
3120.23
2240.33
2037.78
598.30
1188.37
991.49
1029.08
857.67
1192.65
1245.77
1630.09
1734.29
2037.60
2863.00
2207.08
1530.79
1117.89
876.94
793.67
704.32
739.32
766.53
1174.84
836.97
2300.81
1088.78
1249.87
1043.54
1290.95
1211.86
941.25
844.83
606.50
1089.86
1088.28
2253.62
501.68
1063.63
1113.11
1050.03
1085.39
951.58
1259.45
1138.99
1223.95
1198.46
2841.84
790.37
1029.47
1084.88
1124.45
1008.42
1125.87
1106.52
1903.08
1834.27
1508.12
2637.53
1232.78
1161.52
1169.51
943.97
1326.30
1185.67
820.74
496.26
304.02
554.92
3024.58
1173.54
1367.47
1316.70
1314.48
1331.60
1173.90
986.39
1210.96
1257.09
1061.02
2106.41
941.32
885.48
754.53
898.83
1008.43
690.07
515.63
867.80
1032.04
1099.04
901.64
954.27
1121.22
1045.69
1204.77
1177.41
1197.21
913.16
736.17
487.84
374.08
463.44
709.10
518.08
1155.09
1268.33
1050.31
871.61
1092.98
1165.58
1150.50
1198.65
1240.40
1074.15
732.74
721.39
1077.16
1608.31
1889.40
1553.97
1181.85
1054.29
1260.12
1107.73
1046.88
1164.76
1349.34
1394.87
1168.44
1210.56
666.21
684.83
518.89
649.60
800.36
849.10
496.71
1153.40
1313.57
967.72
964.75
1016.80
1618.29
1254.34
1594.04
1590.38
1375.63
873.55
332.86
929.64
1327.55
914.09
714.50
379.43
1081.62
1380.53
1519.90
1532.89
1639.50
1363.62
1358.77
1359.30
1666.84
1426.72
255.21
968.23
678.33
679.62
807.15
495.68
1029.41
1263.95
1148.70
931.78
999.77
1058.47
1351.29
1230.50
942.90
1399.09
927.38
732.94
603.30
547.13
592.55
623.84
531.69
1287.36
1486.53
1462.75
2623.18
1292.27
1441.85
1379.04
1727.31
1795.58
2171.67
1623.26
1074.19
445.82
707.50
3274.87
1211.08
1166.85
1530.82
1312.41
1211.47
1012.36
1038.25
922.49
1279.79
1196.01
3455.26
1055.22
520.62
630.64
793.64
879.75
433.57
1097.22
1261.72
1323.51
1457.26
2056.31
1242.82
1419.83
1473.50
1204.23
1543.48
1493.35
983.38
489.05
429.49
493.33
512.70
591.64
784.08
1125.30
1188.66
1293.17
1585.21
1726.86
1462.82
1216.87
1393.96
1712.34
1400.98
760.03
561.24
597.44
1634.47
2393.16
2358.46
2108.68
1121.92
1423.88
2190.31
2285.39
2169.55
2124.94
2127.37
1748.47
1422.54
920.91
617.96
1167.78
1464.52
731.77
429.83
490.97
639.91
891.44
1117.54
917.25
965.74
1018.23
1224.81
1186.70
1657.11
1774.17
1274.89
1037.28
521.67
844.11
1721.28
1665.90
1127.35
843.26
1746.23
1620.85
1344.29
1166.46
1450.60
1234.55
1214.26
1339.58
1122.18
432.26
563.88
1050.44
1084.34
1107.81
626.97
235.43
1031.16
1117.03
1083.18
1084.11
1231.89
1099.67
1517.41
1570.10
1578.78
1201.29
1003.87
942.63
1106.35
695.23
636.63
972.90
857.63
1000.00
1302.05
1188.45
965.83
1072.29
1601.97
1377.14
1383.00
1389.50
1134.75
916.31
636.41
419.68
1544.50
1098.33
704.10
1057.93
1227.14
1117.46
1086.60
1088.84
1356.92
961.48
1164.43
1744.60
1156.70
575.63
788.46
821.57
896.46
492.85
409.79
586.31
893.31
1121.30
2032.74
1095.02
1212.33
1485.80
1391.19
1147.34
1463.51
1434.69
1234.56
851.12
542.48
381.12
692.58
408.57
701.68
996.44
1195.29
1025.37
956.92
972.91
1257.81
1249.44
1204.94
1336.09
1223.31
1255.62
1261.18
845.27
761.62
724.67
1039.43
1726.30
1270.86
1057.39
1264.08
987.45
944.35
1000.61
1283.35
1229.84
1152.74
830.84
940.59
620.45
453.48
835.78
475.90
604.54
1189.94
1097.75
1307.53
943.45
1011.94
1141.40
1147.39
1144.08
2572.26
1116.07
1020.71
562.34
937.20
1484.66
2669.28
3037.99
2611.21
2418.95
1344.65
3475.44
1059.22
1411.13
1468.57
1314.65
1182.11
1388.16
1283.61
563.99
1032.19
1902.01
3559.31
715.53
590.29
1091.00
1062.80
954.77
1034.37
1063.58
1177.94
1495.80
1495.87
2165.85
1283.57
791.71
526.53
498.23
1058.54
1151.74
539.96
613.62
886.42
1220.57
1192.42
857.42
1044.78
1229.40
1317.92
1499.21
1145.94
783.41
458.38
497.49
450.79
665.47
677.23
714.17
706.59
968.49
977.67
1076.14
933.93
1105.96
1136.83
1042.42
1119.63
1705.52
747.59
848.83
1028.08
718.70
666.77
641.38
589.36
1406.94
1968.26
1926.32
1879.09
1589.55
1633.66
1610.36
1666.17
1410.08
1363.98
589.05
764.05
1584.10
1842.41
1986.06
2141.99
1495.66
1244.91
1067.41
1436.26
1389.63
1385.05
1777.16
1191.20
1178.29
1120.01
939.32
400.60
325.42
397.81
466.44
533.95
626.06
1462.67
2053.55
1658.73
1210.65
830.45
981.29
1337.03
1438.33
1373.22
1406.35
845.60
610.08
754.82
643.37
615.43
486.18
709.31
1321.08
1490.53
1714.45
1159.90
1043.19
1925.54
2075.32
1613.09
1495.90
3004.51
1394.38
745.48
558.22
959.97
1047.29
987.58
797.40
1181.24
1340.25
1640.62
2980.43
1034.91
1313.57
1079.32
1359.48
1806.47
1390.77
887.08
854.55
760.05
356.12
1179.60
779.90
1257.67
1294.72
1132.32
947.64
1070.05
1087.20
1031.11
1129.05
1269.86
1047.96
563.93
1126.23
1005.09
819.65
748.04
1038.46
781.63
1436.39
1452.22
1757.78
883.52
856.88
942.03
1212.85
1149.67
1303.82
1966.42
1968.66
1886.42
1222.42
941.51
801.00
841.17
478.00
1042.67
1605.51
1769.66
1259.69
1480.62
1252.94
1400.44
1285.07
1404.65
1045.18
638.25
1167.95
1264.01
990.29
1065.72
1094.89
1066.08
1176.56
1272.46
1861.52
2252.84
2227.45
2092.55
1432.09
1437.65
1633.05
1597.70
1389.48
571.89
498.82
584.72
588.70
538.82
1134.01
1156.54
1186.56
1273.36
1284.78
1593.75
1907.31
1118.20
1063.11
1950.70
1870.26
1313.74
671.58
401.67
541.92
731.21
900.62
1722.90
1620.86
1954.67
1527.59
1198.89
1248.51
1155.98
1270.90
1589.40
992.78
463.32
638.75
321.25
368.15
636.31
653.09
616.59
1055.81
1068.89
1109.37
1072.52
1099.61
1037.29
1140.99
1255.88
1833.88
1467.70
1794.56
1952.44
2139.75
1808.37
1102.37
637.77
993.54
1251.23
1128.75
2180.42
885.02
1155.45
1059.81
1014.53
1228.62
1116.63
628.57
633.82
759.22
633.84
1728.28
617.57
754.63
995.62
1202.31
1194.74
1156.52
1142.97
996.18
1060.99
1045.70
2788.00
897.62
454.47
568.01
816.45
894.22
990.16
786.38
1264.07
1541.18
1449.64
3138.83
936.41
1143.34
1435.96
1164.26
1278.49
1067.59
565.74
546.91
724.17
574.59
1168.26
1528.23
2024.12
2275.36
1771.07
1064.73
2204.89
3400.32
3329.84
1809.45
1022.93
1247.31
1268.56
1048.51
688.54
590.06
1106.74
1135.74
434.67
720.59
1643.23
1425.92
1790.61
1583.95
1215.97
1132.08
1162.68
1233.14
1142.09
1208.74
910.79
529.72
314.96
778.75
586.41
508.26
1215.23
1462.60
1076.22
1755.08
1662.14
1369.41
1439.69
1680.77
1684.98
1642.39
1303.04
1608.08
1437.91
852.93
276.66
1122.19
1425.80
2046.15
2235.78
2020.82
1826.74
1049.45
1078.14
1195.13
1204.89
1051.59
1160.77
507.28
744.19
247.40
433.74
1698.91
462.40
488.14
1210.12
1103.13
1086.00
792.02
1039.97
1094.64
1246.08
1120.70
1359.84
1062.69
548.66
768.46
1396.63
1577.63
1549.99
1207.60
670.92
1244.90
1039.42
1018.65
1032.31
1136.08
1272.10
1331.14
1288.05
980.08
775.49
817.85
653.57
571.64
699.37
710.51
1075.93
1189.35
1416.12
1125.60
973.23
1052.25
976.51
1108.89
1246.44
1083.48
1830.08
602.67
706.73
477.29
817.22
791.41
1112.18
1061.77
1550.67
1711.95
1456.74
2725.46
1189.58
1485.33
1532.76
1979.57
2196.68
1718.11
1469.31
1059.41
528.34
912.24
3468.04
2257.16
2277.10
2342.43
1544.55
1215.36
1071.22
1084.27
1212.89
1315.15
1254.73
1900.48
660.49
761.15
765.29
302.82
814.58
1116.11
1526.50
1486.40
1487.77
1908.20
1415.06
1159.03
1260.06
1285.05
1226.92
1209.30
1332.79
627.74
509.31
363.64
570.60
432.15
809.90
494.61
1088.33
995.50
1045.81
1066.92
1093.27
975.33
1075.04
1073.05
1185.38
1143.98
395.22
336.21
613.56
1695.79
1885.72
1331.35
1171.58
1580.54
1574.79
1514.82
1718.43
1521.23
1505.63
1433.62
1481.60
1054.78
703.56
502.79
499.64
611.49
591.17
1850.66
613.52
1369.72
1564.67
1252.37
1036.23
893.54
1155.49
1363.00
1099.05
1106.90
1159.44
816.35
1004.25
706.90
653.99
790.12
1092.41
1252.57
1511.30
1410.73
1205.16
926.73
1099.64
1331.29
1457.42
1314.36
1446.17
1345.67
654.98
500.89
767.23
542.52
455.16
768.02
656.42
1023.78
1097.85
1008.83
1153.43
1846.08
1633.23
1209.43
1025.88
1380.53
1678.63
868.18
742.17
605.75
800.80
880.06
1281.14
1740.78
2302.21
2719.01
2246.39
2017.81
1801.55
1489.38
1281.32
998.55
1141.15
569.96
576.15
471.77
497.55
899.07
857.45
651.30
1151.69
1137.14
1033.32
925.30
1148.17
1032.25
1186.19
1152.06
1017.87
863.65
1362.18
607.51
535.77
830.13
1101.76
1120.84
1425.38
1771.22
1681.37
1171.86
1204.23
1585.92
1204.17
1191.89
1242.61
1326.90
1330.90
1619.92
1744.66
1006.32
610.06
1928.31
3150.94
2169.55
1717.19
1819.39
1281.76
1043.68
996.30
1192.51
1013.01
1038.12
1346.77
1628.17
1517.26
1502.72
1915.27
2027.45
1259.76
533.34
1013.42
1114.02
1011.42
812.73
1674.32
1068.55
1075.64
1061.25
1381.48
1260.89
482.51
554.11
343.48
445.97
517.18
1630.21
1064.68
837.28
1269.48
1031.61
926.06
1132.68
1174.76
1102.57
1401.79
1589.86
2310.87
356.63
791.34
850.17
729.36
460.32
906.48
1414.84
1348.89
1225.48
1281.49
2741.60
1526.98
1706.98
1654.66
1394.98
1417.34
477.75
775.86
1115.03
816.55
496.31
2394.23
1035.12
1116.07
1063.38
1062.23
904.85
1100.63
1128.30
1194.34
1319.61
1026.28
3042.08
536.80
464.40
675.64
1098.62
1160.76
983.51
1054.85
1301.84
1347.56
1247.70
1126.88
992.12
1350.04
1271.37
1158.26
1197.92
645.79
718.51
977.08
878.22
1039.08
753.45
914.80
1069.33
831.39
1176.07
1197.82
1325.58
1177.49
1331.40
1122.38
1123.26
1113.94
617.53
645.95
589.20
1015.23
1123.60
1139.18
1046.61
1603.56
1450.34
1220.62
896.01
1118.20
1436.86
1085.14
1253.29
1167.99
968.79
645.32
760.57
1100.41
1070.31
676.39
475.48
811.19
1590.62
1558.44
1484.38
1269.18
1264.32
1220.35
1319.33
1520.02
1585.30
1246.76
1128.00
1382.41
1475.42
1669.42
1318.31
1352.48
1577.86
1275.97
1087.51
1053.41
993.86
1163.33
921.96
1043.77
1181.22
1186.97
562.76
645.61
642.54
484.79
916.10
1143.43
1231.99
1628.51
1699.36
1403.76
1015.93
944.17
1190.05
1359.83
1154.54
1378.58
1276.59
789.67
1093.76
1258.39
1370.73
1272.07
1105.70
1135.57
1526.05
1488.21
1081.49
1036.96
1060.50
1565.51
1849.29
2400.87
2220.96
979.37
455.27
1608.56
2576.18
2719.07
2606.76
1716.06
1094.06
1098.77
862.56
992.77
1024.72
990.87
1225.36
1186.76
974.94
1566.52
1164.93
1282.71
1197.24
1239.32
1103.78
975.49
726.11
1264.91
1197.55
1194.04
1175.58
1030.69
1304.69
1103.18
1387.84
1520.30
973.49
564.01
310.84
448.73
522.27
1152.18
531.45
670.98
923.39
1041.23
1089.06
893.18
942.32
1195.18
1192.43
1451.99
1304.17
732.41
738.65
449.83
465.70
337.58
583.14
443.89
885.95
1142.30
1105.48
1622.35
848.13
1544.12
1149.37
1293.34
1253.14
1494.15
680.83
558.86
409.82
670.29
1237.56
906.13
699.06
1176.16
1377.09
1205.51
859.43
1063.44
969.48
1268.09
1074.63
1892.41
899.36
473.99
673.52
638.42
761.16
908.83
992.44
1127.71
1195.01
1502.28
1831.51
1086.97
1219.19
1199.22
1190.49
1292.94
1040.26
662.64
603.62
481.00
316.68
1353.19
534.53
645.86
1091.14
1061.70
1239.94
1041.04
1122.92
1226.87
1071.56
1203.33
2493.83
1244.62
508.23
519.74
478.23
762.35
774.91
736.58
1279.77
2015.16
2438.98
2835.65
2403.22
1533.85
1159.05
1197.01
1415.23
1518.76
1055.02
424.24
453.46
511.14
478.50
536.12
581.90
761.70
1274.73
1229.33
1133.79
1030.39
1120.04
1022.22
1093.69
1114.81
2638.62
905.71
1133.89
1288.40
1397.05
1058.04
610.25
708.34
986.19
987.28
1122.89
3481.22
877.75
1172.94
1058.53
1348.51
1294.53
1503.40
1113.78
1234.55
958.03
615.78
2423.59
659.62
671.21
1160.84
1636.51
1340.34
928.51
1004.13
1092.71
1180.08
1112.47
1508.31
982.35
610.91
457.23
375.57
569.81
691.71
915.73
957.80
1577.41
1444.31
1159.60
865.80
1171.99
1205.32
1156.89
1328.33
1133.64
671.68
405.48
280.90
601.31
714.50
850.48
649.13
1102.18
1071.43
1272.69
1042.96
946.95
1147.42
1160.01
1041.04
1173.93
3509.33
651.83
822.03
832.09
1171.33
1052.42
1045.82
969.82
1547.88
1302.28
1396.43
2484.31
1329.38
1408.62
1656.73
1694.16
1455.59
1100.65
898.73
867.89
586.46
216.97
2552.73
610.48
586.19
1083.80
1005.16
1042.53
829.74
1087.69
968.27
1089.67
1299.60
1037.42
415.94
602.85
506.17
627.41
416.35
448.45
636.22
1117.36
1427.05
1572.89
1412.85
1670.28
1580.51
1251.55
1397.43
1597.06
1343.57
471.19
506.22
617.31
876.33
584.73
1810.37
962.43
1281.44
1053.15
1146.65
1050.20
1600.01
999.78
1228.93
1108.95
1403.20
2840.88
794.91
631.38
736.92
996.16
1096.55
953.18
682.82
1131.85
1496.64
1415.40
1124.37
1233.89
1214.64
1001.98
1416.71
1138.48
1086.55
1019.83
818.84
502.45
441.16
976.96
1075.31
951.27
1189.37
1135.35
1148.71
950.59
1217.66
1089.58
988.01
1017.38
1144.34
871.68
1141.06
1329.85
1275.31
822.69
477.70
523.51
1713.40
2273.60
2579.17
2182.85
2262.37
1621.80
1194.73
1069.71
1328.32
1125.70
568.61
621.98
1121.66
1191.14
779.99
899.56
2141.24
2355.60
1911.86
1429.13
936.99
1129.25
1191.15
1097.09
1356.50
1133.26
1444.19
1669.54
2051.57
2080.77
1849.67
1471.10
1308.53
1540.36
1207.33
1119.09
994.20
978.17
1198.66
1679.32
2007.37
1310.48
1252.14
615.14
564.33
621.87
761.44
646.30
849.61
415.05
1175.36
904.03
1131.37
990.77
1085.17
1125.30
1105.84
1121.03
1058.30
1252.99
560.75
844.45
767.26
611.19
683.54
704.86
833.97
1118.23
1333.89
1266.79
2851.17
1516.41
1743.03
1316.67
1453.13
1121.20
677.43
574.74
863.08
361.48
457.97
556.57
760.32
783.20
910.78
1340.01
1105.21
1007.72
1163.09
1209.22
1194.49
1111.41
1069.53
1500.51
818.21
622.02
536.48
402.98
759.47
1047.74
1726.27
1711.66
1229.51
770.77
1045.93
1003.70
1136.02
1207.41
1152.65
953.33
800.30
618.80
889.63
857.72
844.27
1045.03
1252.37
1212.71
1192.15
1373.73
1370.56
1755.19
1427.48
1222.65
1344.04
1542.83
1168.64
836.82
268.21
449.86
664.64
510.96
562.13
1109.83
1527.72
1414.51
1219.97
1083.65
1862.02
1279.09
1418.85
1327.94
1077.03
591.21
755.65
530.05
455.86
527.46
883.64
2524.19
1093.45
1137.85
1018.39
1077.22
1473.05
1146.21
1191.43
1417.91
1308.81
1098.37
482.50
732.30
1842.07
2534.56
2753.11
2225.95
1855.76
2408.29
2080.54
1199.17
1196.45
2288.92
2713.27
2659.26
1950.70
1295.66
882.31
648.09
487.62
576.29
438.52
568.58
539.02
1130.80
1166.86
1116.45
1061.54
1082.90
1182.09
1072.75
983.89
1064.58
1239.20
638.96
1780.12
1301.50
1567.48
1376.39
1118.14
801.57
1245.92
1316.64
1169.58
1025.53
1126.44
1648.91
1303.59
1255.69
1166.81
1160.66
553.49
457.90
502.40
496.95
573.38
873.64
2361.61
1308.66
1234.89
1038.78
957.17
1011.67
1138.76
1145.07
1141.00
1158.59
606.39
1877.24
1277.29
727.46
409.53
656.72
581.76
1179.54
1262.11
1359.07
1253.18
1378.97
1281.63
1394.60
1120.39
1148.72
1283.40
564.40
509.39
656.69
441.41
564.38
513.84
608.66
1773.71
1019.36
1214.33
1005.20
1037.24
1101.24
1165.19
1334.94
1395.08
1143.67
421.40
1736.37
730.16
1088.81
1054.53
1108.19
1325.67
1203.50
1367.09
1672.73
1697.20
1759.06
2443.70
1622.17
1488.52
1116.08
764.18
701.70
867.07
673.66
632.22
432.70
323.98
839.95
1124.10
1054.21
807.32
992.22
1644.07
1563.29
1280.40
1236.43
1059.73
555.43
586.54
542.14
804.37
1031.54
1487.19
1256.31
1631.31
1139.28
1286.26
962.15
1175.42
1247.50
1833.70
1288.42
1343.77
1329.51
942.15
1108.73
856.98
533.48
595.75
916.37
1143.32
1875.05
1076.80
1182.39
912.35
1190.07
1202.84
1399.90
1584.16
1513.95
1146.10
751.60
1347.69
960.92
824.33
627.26
694.54
1125.92
1190.02
1101.13
972.14
994.47
1287.83
1530.02
1232.06
1193.94
1358.31
444.03
595.66
350.43
463.85
412.04
1019.34
1816.57
2191.53
1745.13
1180.96
1203.67
1346.98
1273.27
1213.57
1073.69
1243.99
971.41
687.08
988.34
1179.44
1334.85
1366.42
1245.14
945.78
1500.87
1057.46
1009.18
1184.47
1454.91
1618.45
1392.26
1477.71
1525.86
1167.16
843.03
930.78
706.88
516.87
505.06
853.51
1699.74
1765.56
1154.01
1017.76
1056.10
1183.77
1003.55
1105.25
1159.36
1055.06
536.88
821.60
447.67
356.26
472.04
669.36
475.39
1314.52
901.27
1320.61
795.70
1246.77
1484.78
1822.14
2066.12
1846.72
1479.38
959.34
810.30
628.41
749.06
973.34
730.67
787.97
1851.64
1289.46
902.31
919.16
966.89
1266.13
1115.49
1232.66
1093.37
852.32
1115.79
2705.73
661.65
783.56
758.69
1161.14
1642.51
2185.28
2170.88
1715.79
1902.46
2041.47
1566.87
1326.05
1124.41
1133.69
709.22
654.42
575.03
521.85
655.27
535.43
598.47
939.00
1525.94
1074.87
921.94
1153.36
1240.68
1233.79
1086.90
1297.08
1067.29
681.34
574.46
1540.83
872.64
720.28
715.32
519.86
1333.52
1243.39
1322.23
955.64
1242.48
1230.46
2593.10
1346.83
1256.78
965.93
757.65
772.02
623.68
609.29
459.06
611.10
1101.31
1119.17
1174.14
1094.07
793.40
1071.32
1055.65
1183.16
1028.23
1153.80
1153.22
1257.11
1190.87
1510.28
1452.35
1471.37
1327.87
1440.33
1106.26
959.20
1493.02
1086.17
999.46
1035.88
1494.26
1224.02
1320.05
855.15
416.67
782.01
816.25
963.03
840.60
775.41
1205.23
2041.67
935.34
960.49
1207.34
1202.31
1128.66
1278.29
1405.34
1727.16
1346.26
716.79
1063.87
407.48
487.28
785.30
1011.77
1149.77
1150.36
1643.76
1477.90
1301.27
1151.27
2081.28
1213.30
1106.29
574.37
280.20
523.44
635.87
676.09
770.18
684.92
1173.14
995.03
1049.29
976.50
1054.76
1233.19
1043.25
1119.31
1218.16
933.79
557.39
444.32
568.91
482.19
939.33
1006.20
773.73
1240.59
1451.29
1460.14
1138.86
1064.01
1276.52
1311.18
1527.07
1057.73
634.50
556.61
544.05
686.47
612.35
743.81
649.35
881.72
1123.32
1178.82
1081.40
943.43
1179.45
819.67
1046.91
1094.72
1154.93
527.18
850.32
917.08
1036.92
1088.70
1071.60
1080.33
1633.11
1697.03
1752.50
1185.71
1190.07
1107.23
1234.21
1104.34
1282.49
1163.66
563.73
659.41
394.46
331.60
590.59
458.14
790.13
1148.93
1439.98
2739.21
1044.72
1007.30
1084.45
1006.13
1180.02
1187.52
510.19
426.87
552.88
871.62
2199.86
900.96
1228.53
1638.17
1920.81
1840.22
1325.14
1203.52
1549.35
1342.17
1335.51
1645.53
1866.82
1926.89
1853.56
910.75
1178.09
1788.11
1735.37
2573.43
3453.70
2633.11
1537.80
1035.18
1206.53
1157.89
1029.07
1035.82
1328.19
1164.96
671.13
566.27
675.87
1127.63
1430.51
1158.53
1056.61
1557.44
1387.86
1088.04
792.58
933.61
1061.80
1197.60
1395.49
1376.26
859.23
600.06
614.85
746.53
1030.69
1055.70
693.40
1004.68
1837.43
2300.09
1891.18
1319.67
993.47
1035.45
1224.02
1146.16
1206.01
615.48
597.84
545.93
1016.98
1312.62
1610.23
1704.02
2178.85
1628.70
1368.78
725.06
869.56
1069.09
1145.73
906.11
1470.94
1044.50
438.73
440.22
734.32
669.11
662.05
722.63
686.70
1015.96
985.88
1531.38
946.66
1069.48
1195.09
1309.87
1345.52
1227.33
703.07
716.56
672.58
601.75
1703.88
645.81
463.44
884.16
1043.04
1460.14
1319.73
1157.36
1370.47
1370.35
1328.24
1062.87
1209.92
710.66
473.35
624.68
427.03
371.46
534.80
667.87
1139.76
848.46
1029.23
2855.85
1116.70
1110.41
930.58
1193.11
1209.58
1073.04
602.42
516.29
521.81
791.97
1832.80
675.17
825.43
1363.79
1519.02
1460.90
1330.00
1196.31
1113.49
1179.87
779.17
1143.67
832.88
381.42
819.12
683.87
682.41
354.03
600.05
984.45
1026.96
995.29
1116.55
2666.22
1072.61
1004.37
1149.01
1282.19
1175.12
610.23
728.00
873.47
919.49
1110.02
2871.85
947.80
1402.35
1251.63
1244.49
810.77
963.94
1162.12
891.80
1032.10
1132.79
2444.25
537.71
414.02
489.84
598.88
574.98
722.02
728.93
1222.89
965.27
1417.24
1269.52
1443.29
1178.14
1154.98
996.29
1242.84
613.73
775.75
1276.78
1008.52
627.11
712.80
1659.86
1134.90
1289.49
1115.77
964.35
1063.52
1201.63
1483.56
1285.37
865.36
1139.16
2010.78
924.93
512.69
910.44
1052.71
729.47
903.48
1158.98
1185.60
1070.29
933.38
1102.25
972.84
1104.27
1077.65
1287.98
1163.86
671.79
731.44
674.58
770.55
485.84
469.36
779.33
975.84
1220.74
1175.03
925.22
1527.69
1618.29
1572.86
1325.32
1164.13
750.62
1504.55
842.58
1141.59
1203.60
907.71
831.99
839.92
1376.19
1744.74
1469.49
1072.66
2523.52
1132.46
923.24
924.68
1218.13
560.36
470.75
501.94
370.88
748.66
820.63
1054.04
1822.52
1979.65
1866.66
965.73
987.73
966.11
1099.39
1125.27
1274.02
954.73
696.94
744.49
1023.69
792.94
528.18
666.79
604.78
1160.90
1159.73
995.01
949.82
1041.28
1789.38
1215.87
1342.55
1191.26
840.05
526.03
640.62
208.47
385.15
742.89
706.64
839.21
1323.22
960.05
912.29
913.92
1010.24
1276.56
1240.90
1451.63
1790.65
1043.77
637.95
601.98
308.49
431.31
600.75
591.09
1172.71
1019.79
1192.63
969.16
836.23
1257.55
1889.36
1216.25
1255.93
1110.13
581.46
385.32
684.39
903.18
832.44
819.12
742.18
1401.43
1700.71
1787.88
1614.21
1154.37
1109.53
1231.54
1337.00
1337.41
898.40
597.18
564.32
571.51
502.90
722.03
440.56
890.80
829.76
1068.09
868.93
690.34
996.76
1134.47
2678.27
1109.47
1308.27
1238.01
1232.89
1216.63
1113.81
1193.02
903.37
940.44
1337.92
2633.14
1180.66
797.34
883.67
1113.77
1014.77
1153.80
1180.41
1047.41
623.33
624.14
2775.07
510.40
687.75
597.17
522.91
1033.27
930.03
897.90
867.21
1080.48
998.05
1009.42
1090.14
1069.80
1024.61
425.28
571.84
590.08
759.98
997.19
1133.37
1109.72
1252.95
1658.10
1497.51
1333.56
1605.33
1340.55
1054.77
1079.71
1134.95
374.88
376.92
332.42
1110.38
461.09
537.74
567.46
992.92
1026.88
1091.15
994.15
902.40
1186.67
1433.87
2213.94
1448.69
1269.92
826.08
542.09
336.60
788.09
672.77
486.58
543.57
1160.04
1357.59
1643.78
1148.44
1042.87
1332.40
1144.24
1289.27
1112.69
889.54
249.03
464.66
1006.74
1894.16
605.65
812.35
1162.85
1191.97
1467.48
1502.70
1190.83
1013.15
1200.50
1303.54
1512.20
1574.42
724.69
635.54
337.14
346.88
424.59
703.91
755.64
1641.86
1697.49
1432.12
1206.21
1010.15
1075.16
1177.57
1206.98
1363.99
1279.77
1036.79
648.96
585.91
322.41
1261.63
398.27
531.33
1029.49
978.90
1016.89
975.59
1157.92
1246.86
1224.31
1240.41
2777.69
1079.23
909.21
746.34
679.31
717.30
599.63
804.60
1080.98
1854.26
2073.86
1630.87
893.46
1276.77
817.05
1197.01
1134.24
1376.96
1079.56
1492.38
1578.97
1240.45
414.48
1111.34
1474.05
2425.55
2730.67
2783.78
1990.93
1161.85
961.61
1575.11
1645.55
1561.48
1222.79
684.50
598.57
574.62
536.01
339.06
520.03
918.79
1391.92
1175.47
1369.20
1702.54
1368.70
1262.13
1299.32
1242.46
1128.22
663.09
617.63
611.21
637.54
544.23
1534.37
421.63
961.61
1226.52
1213.07
1249.78
986.25
1151.26
1416.89
1382.27
1495.61
1536.64
896.50
1014.19
677.57
584.95
449.77
520.79
672.44
1240.81
1139.15
1413.05
1117.14
1359.50
1709.34
1803.69
1485.91
1484.26
1191.18
640.92
422.48
391.53
389.15
312.07
1171.49
680.61
1076.31
842.96
930.02
951.88
908.46
997.28
1090.94
1243.25
959.09
2775.09
484.18
511.03
677.87
532.21
379.57
527.14
681.68
1274.77
1475.13
1622.00
1135.49
1664.70
1169.64
1047.93
1046.62
1314.40
732.40
671.02
618.93
507.59
613.16
761.81
2886.38
985.50
909.17
930.09
1007.36
853.32
877.41
1097.40
1018.64
1171.34
1197.93
1625.95
2306.22
2428.82
2626.39
1961.96
896.89
444.40
885.19
1165.09
1049.11
973.49
953.08
1279.54
1039.09
1167.94
1047.00
1205.68
1142.09
972.16
434.08
1122.15
1742.59
1447.40
1246.75
1237.78
1288.02
1213.14
1064.07
816.56
1137.92
1021.42
1132.85
1095.80
763.37
950.44
889.34
1251.85
1213.00
1279.82
1145.01
1235.59
1334.60
1426.21
1508.63
1651.68
1476.08
1261.64
987.65
1114.04
1089.44
941.07
1462.70
1184.35
318.46
477.99
311.19
598.59
962.34
1028.87
1147.88
1044.48
980.09
1073.85
975.80
1262.41
1200.59
1356.03
1575.21
1194.73
1088.78
670.98
643.04
665.48
727.23
1433.01
1386.38
1211.47
909.42
1203.13
1115.77
1166.76
1251.12
1369.75
888.42
1225.68
939.12
642.67
752.33
536.25
746.55
1055.14
1303.05
1107.37
1027.83
1012.27
1158.07
1194.87
1138.59
1162.42
1249.02
1588.02
2222.61
2829.79
2321.42
1625.23
554.67
968.56
1124.35
1235.85
1341.24
1110.98
1237.76
1154.66
1169.64
1140.03
1061.54
779.60
634.72
634.20
417.42
631.20
489.05
1448.20
705.46
1119.12
1563.74
2193.14
2414.54
1930.84
1210.52
1112.16
2071.55
2781.39
3594.58
2171.34
1360.21
513.15
852.38
1028.04
1423.36
2171.68
1649.65
1904.49
1932.60
2724.45
2403.81
2445.72
2130.67
1477.60
1229.04
554.66
995.07
1096.22
914.14
698.19
1183.83
1491.60
1879.33
1516.69
1134.06
1013.65
2352.94
3447.25
3530.68
2724.61
1526.84
1524.69
430.44
1144.78
1581.02
2067.92
1788.75
1339.22
1376.78
1256.05
1479.74
1270.75
1997.42
1810.71
2202.25
2413.31
2202.89
1558.59
601.57
1240.66
2480.07
2945.65
2039.35
2965.11
1255.64
1425.77
1210.18
1079.31
1121.80
1160.53
1134.15
1493.45
1887.32
1922.01
2791.21
921.10
790.48
804.61
606.26
656.71
1096.98
926.16
1001.59
1037.74
1429.91
2443.38
1902.10
1670.64
1509.60
1264.81
1124.85
654.28
468.60
520.86
354.48
549.96
2838.46
644.79
1192.61
1130.29
1194.68
998.34
1164.23
1060.16
1044.16
1134.72
1121.12
1927.52
744.77
594.90
425.94
745.29
1082.67
1270.67
897.14
1312.02
1540.34
1346.14
1170.34
1113.81
1261.69
1248.46
1182.23
1219.77
1403.84
944.88
870.06
792.92
566.04
533.85
474.75
467.54
1316.56
1090.64
1348.24
939.75
1083.22
1083.88
1413.58
1813.73
1661.32
1021.64
687.08
840.27
554.75
553.01
746.27
683.94
1079.92
1110.16
1153.62
1122.23
1132.45
1448.98
1312.93
1541.18
1734.90
1445.95
669.04
561.03
229.82
675.26
724.98
1353.99
1609.23
1305.04
1120.81
1316.47
1129.39
1473.72
1640.54
1482.97
1421.07
1210.68
1165.97
458.68
433.11
871.16
915.94
600.37
659.81
418.90
1105.08
1083.47
1580.64
1664.96
2345.91
3044.97
3341.33
3103.73
2171.87
1054.22
1053.59
1588.88
1744.87
1894.80
1755.37
914.98
1248.47
1188.82
1202.23
1098.97
1192.44
1229.69
1224.17
1037.92
1168.53
1210.00
592.19
968.20
905.40
954.53
1160.57
1699.25
1393.56
2269.67
2916.91
3538.67
3443.55
3458.61
2754.86
1154.33
2103.83
3137.36
3567.52
3027.01
2408.93
2737.34
1987.07
577.59
491.15
880.45
1205.58
1046.36
1063.05
1115.68
1134.91
1171.37
1141.04
1185.53
1419.49
1152.13
929.24
671.47
505.82
538.75
569.87
668.93
1110.43
1373.77
1411.34
1713.56
1423.29
1668.10
1306.51
1245.93
1301.54
1367.54
441.70
509.88
250.43
390.60
781.59
594.16
464.96
1301.06
1205.03
1395.28
1091.99
1178.33
1321.00
1698.96
1511.67
1890.20
1096.36
377.35
463.99
337.34
649.73
944.15
947.53
853.09
1242.16
1348.95
1532.99
1128.05
1310.07
1412.05
1240.40
1322.06
1066.36
1150.98
833.75
872.94
606.67
1323.10
746.63
481.42
1260.69
1671.34
1399.07
1175.23
1015.74
1086.97
1383.75
1560.76
1831.39
1247.21
514.90
505.90
454.49
461.92
702.40
568.30
427.91
1241.93
1393.91
1476.79
1345.07
1418.42
1086.35
1150.37
1187.77
1444.77
1345.02
506.11
401.20
256.38
499.39
941.63
395.82
778.24
872.34
1315.40
1177.80
1147.27
956.86
1222.19
1313.32
1412.38
1205.44
1218.21
664.78
576.68
442.24
585.43
675.47
873.14
1416.00
1821.21
2544.43
2535.64
2094.12
1909.16
1654.10
1483.52
1247.73
1305.12
509.22
491.61
467.80
591.00
419.99
1661.15
562.34
1042.27
833.16
1084.88
1193.49
2016.27
1406.96
1094.75
1249.33
1887.92
1926.99
1474.79
779.70
759.94
369.69
635.29
780.46
692.26
1104.67
1014.17
1308.09
1035.37
1526.26
1316.60
1332.74
1601.42
1396.04
1098.02
682.49
778.52
1290.70
1197.07
514.18
1312.22
978.88
1174.74
2150.18
2116.15
1420.38
920.92
1191.92
1350.43
1332.46
1274.08
1172.55
996.54
761.41
562.59
327.01
482.70
544.75
1026.54
1443.87
1369.94
1264.44
2722.75
1602.43
1623.20
1239.77
1107.39
1200.29
600.71
707.26
625.80
496.25
475.60
562.02
810.31
977.66
937.82
1222.27
1119.80
1256.74
1039.31
1179.49
1063.62
1148.58
1102.58
1085.13
1052.67
979.39
1239.56
1109.33
1283.86
1699.13
1554.40
1492.36
1977.84
2325.95
2971.96
3007.40
1824.13
1221.86
1159.36
1071.36
1531.58
1206.59
1177.02
1053.32
670.95
1193.60
1269.60
1335.64
1448.12
1102.67
1127.78
1055.83
1430.86
1525.67
1269.63
962.89
1611.46
727.42
774.05
596.10
551.04
571.66
842.31
1598.24
1747.91
1552.22
1290.58
1899.14
1491.41
1268.15
1189.84
1192.81
1134.26
581.44
458.91
423.70
491.37
316.68
1854.31
1295.69
1155.89
1216.93
1093.21
938.04
1227.97
1045.81
1352.11
1196.54
1327.71
2198.82
1122.64
927.93
853.40
757.07
927.48
693.86
1337.13
1078.11
1112.56
1023.42
2937.07
1037.81
1206.12
942.82
1511.00
1235.86
609.33
529.70
549.18
618.96
382.81
2854.75
775.58
1106.74
1151.52
1067.71
1098.19
900.96
1249.72
1507.75
1493.72
1370.04
3259.91
1124.59
901.38
531.14
349.23
529.41
505.48
1373.64
2250.30
2283.95
1968.41
1521.92
1224.96
1078.06
1105.65
1085.68
1175.40
899.14
633.72
385.98
611.66
547.94
632.67
730.44
1128.09
1253.23
1199.34
1097.98
1186.82
1448.32
1197.36
1121.85
1177.49
1171.28
1288.12
658.56
672.27
494.67
1181.26
1439.26
1198.04
1420.51
1316.90
1079.70
917.74
2311.70
1215.08
1107.69
1023.66
1022.43
1181.78
851.73
1008.17
905.13
889.71
1192.55
2227.75
1145.91
1249.96
1078.23
1329.00
1022.35
1241.59
1143.39
1194.34
1072.41
1183.50
2600.37
561.95
832.59
836.23
739.81
752.00
583.61
1158.30
1163.62
1527.94
1291.13
2958.87
1390.62
1092.04
1242.80
1163.28
1086.81
752.51
790.09
898.01
881.31
576.51
1138.57
1402.71
2405.88
2093.43
1302.29
947.82
1110.78
1274.87
1214.17
1157.90
1271.86
1090.53
452.98
479.00
768.60
1092.77
1483.67
2108.51
2416.78
2579.51
2913.58
2519.03
2282.98
2475.60
2689.82
1961.25
965.06
1770.31
2467.24
3097.64
2676.48
2306.43
2148.50
1997.67
1781.64
1605.69
1124.70
1076.66
1123.22
1162.34
967.58
1234.06
1489.38
1399.46
1426.77
764.64
803.30
945.20
929.62
899.03
1090.32
1378.17
1708.94
1588.56
1357.77
1231.62
1131.73
1223.05
978.67
1074.31
1177.15
1222.74
677.38
890.32
836.99
727.05
559.70
450.16
902.51
1135.68
1314.61
1330.40
1073.48
1273.94
1022.32
1250.80
1573.71
1745.72
1294.20
1045.44
506.29
1161.44
1594.23
1602.59
1156.00
1136.97
1212.97
1352.71
1294.70
1666.33
1416.72
1697.22
1603.34
1476.86
1348.50
733.57
461.49
340.26
608.87
528.31
559.15
749.75
1041.79
1135.86
1231.75
1243.52
1110.73
1295.38
1240.97
1276.92
1164.99
1185.68
1179.99
1208.63
1209.51
1483.34
1391.40
1215.50
1137.04
1247.39
1688.24
1701.99
1456.39
1553.50
1163.41
1324.05
1230.33
1615.47
1067.45
652.19
982.82
1414.65
1540.52
1651.79
1037.08
1329.16
1201.65
1250.95
1089.03
1175.03
1113.34
1170.03
1053.67
1030.18
1421.93
527.39
443.45
745.98
1049.55
1338.46
1992.17
2128.70
2295.14
1811.85
1302.28
1169.63
1143.79
1020.08
1010.58
1291.19
1510.01
1443.50
980.92
639.66
596.86
944.93
1352.22
555.15
1036.34
1183.76
1212.70
1365.19
978.59
1098.73
1092.96
1072.65
1226.79
2000.01
680.28
755.79
841.42
985.19
1070.52
1141.45
921.78
1325.37
1163.74
1350.33
1639.54
1239.72
1269.08
1368.98
1174.43
1188.37
1309.91
863.58
955.78
974.00
715.55
1533.04
631.12
655.60
945.56
1199.65
972.29
1111.25
970.22
1199.50
1408.11
1463.35
1930.16
1226.97
818.22
1223.89
1251.58
1116.69
651.21
589.87
843.62
1805.95
1863.90
2275.82
1624.62
1249.72
1161.16
1217.67
1225.48
1202.57
779.16
668.84
513.42
551.50
1997.99
500.51
701.26
1273.00
1404.03
1157.81
1072.13
1242.87
934.28
1054.00
1141.11
2804.12
1222.49
842.41
901.26
868.62
1023.83
777.02
406.15
459.96
1243.96
1443.03
2810.98
1127.46
1106.50
1584.48
1469.85
1290.88
1388.18
1376.23
620.66
724.58
490.57
2743.23
335.18
664.09
1298.15
1143.04
1230.86
1376.24
1117.27
1194.77
946.55
1304.69
1938.79
1215.42
516.44
446.26
296.81
878.50
1417.87
1680.36
1574.00
2282.25
1912.59
2030.67
1117.32
997.96
1362.51
1173.34
1148.88
1213.33
1015.10
658.19
575.26
956.78
915.42
823.91
477.96
523.09
1101.58
1313.28
1229.23
1188.40
1038.24
1473.35
1667.57
1456.91
1162.00
1170.24
392.78
651.93
332.88
492.02
571.28
1087.62
1670.68
2684.42
2628.15
1743.74
1054.51
1194.89
1116.83
1081.52
1092.42
1238.78
601.42
628.81
561.20
418.22
508.75
672.61
899.33
1067.18
1264.70
1231.74
1042.53
1186.53
1074.66
1193.72
1209.61
1269.66
1208.36
1228.46
1179.83
1016.90
578.07
534.39
713.23
908.35
1444.64
1502.34
1367.05
1178.62
1087.46
1206.38
1018.16
1443.33
1334.89
1456.94
711.92
923.68
991.81
1110.61
866.55
641.48
1185.85
1354.70
1190.32
1143.36
1324.82
1300.91
1239.92
1394.28
1392.22
1284.16
880.93
491.24
525.13
510.07
540.15
511.01
689.32
2156.08
2700.78
3048.65
2383.54
1619.14
1165.17
1306.90
1570.01
1882.68
1777.43
956.82
418.75
723.06
1239.55
916.62
454.73
658.75
887.13
1162.64
1043.09
979.43
1191.62
1217.88
1103.69
2066.87
1040.02
1176.16
352.01
583.94
523.63
1004.85
910.74
1039.28
1673.89
2250.29
2259.11
1720.42
1033.83
1134.76
1172.14
1136.18
1132.19
1345.59
468.14
772.44
740.67
1652.93
460.23
673.72
589.62
1151.25
1150.35
1230.65
1355.64
1325.26
1128.81
1016.67
1313.94
1828.07
1591.03
1517.19
1574.75
579.69
683.27
974.92
922.96
876.67
1181.59
1434.90
1370.32
1068.36
883.33
1353.79
1105.78
1188.18
1435.04
1460.13
784.81
851.79
543.77
741.56
724.75
579.33
858.56
1148.08
1169.60
1022.98
1450.38
1810.70
1497.23
1356.27
1728.20
1238.66
783.76
694.83
526.31
447.86
430.80
780.19
721.11
1440.93
1431.94
1506.12
1648.51
1477.23
1792.65
1698.89
1442.51
1097.07
1202.97
586.39
372.02
499.23
615.04
487.00
479.84
650.01
1362.00
1226.11
1455.91
1445.32
1115.46
1182.90
1092.44
1288.61
2400.97
1456.54
1031.92
1298.64
1299.39
1133.45
923.87
756.46
908.00
1479.57
1113.96
2972.67
951.95
1139.62
1322.26
1551.20
1629.91
1569.65
753.45
728.35
980.79
1050.97
3013.57
301.63
274.68
1200.66
1145.19
1204.78
966.87
956.89
1075.25
1376.12
1213.64
1793.60
1000.75
412.20
652.73
1001.32
675.83
958.95
549.45
518.97
1130.45
1356.01
2164.19
2578.93
2433.40
2002.75
1532.98
1192.12
1115.00
1411.13
1222.55
554.88
539.91
399.92
564.09
580.42
899.44
1248.57
1536.31
1395.21
1366.68
1225.30
1669.90
2797.09
2874.24
2034.18
1181.78
387.13
473.30
548.85
570.13
1070.23
1347.45
1937.28
1790.72
2004.90
2006.44
1585.30
1323.91
1253.87
1224.47
1220.89
1418.64
609.14
714.43
558.41
562.39
1345.84
789.00
699.06
1286.43
1272.71
1480.59
1302.40
1084.82
1006.06
1222.31
1064.23
1475.26
1394.05
769.08
608.65
573.47
1004.39
1018.43
1006.83
1148.08
1412.63
1370.82
1244.97
1238.45
1240.92
1077.15
1372.76
1140.86
1239.37
663.18
549.41
472.02
888.25
1161.07
1424.80
975.37
1118.60
1059.38
1367.95
1331.70
1320.37
1209.40
1279.66
925.24
1103.82
1188.27
597.60
653.29
725.92
578.55
591.92
834.73
934.44
1629.12
1719.11
1588.77
2010.13
1280.18
1344.55
1285.25
1363.80
1474.34
1486.43
1204.87
1382.75
1371.62
1247.84
1270.24
604.34
1196.37
1525.86
1700.31
1928.38
1688.96
1787.23
1098.17
1155.62
1236.45
2146.05
1186.26
1441.20
1964.21
2354.42
1973.38
1393.37
800.59
1387.36
1165.43
1223.82
1474.82
1145.09
940.17
1294.19
1045.59
1413.08
1232.81
610.57
222.99
557.19
561.55
1523.21
719.59
927.75
949.67
1231.13
1101.53
1057.05
1132.76
1124.97
1031.99
1192.88
2352.33
1377.54
697.61
711.40
1165.97
953.17
1295.79
1319.90
1419.69
1829.20
1516.86
2551.43
1238.36
2118.65
3099.92
3438.75
2030.34
1320.80
1462.28
2379.74
2794.33
3432.10
3464.47
886.21
403.18
1304.15
961.12
1083.32
1097.94
1514.46
1347.18
1183.11
1252.13
3463.55
1309.66
670.45
347.54
403.04
803.04
974.37
816.40
858.19
1400.23
1310.77
2958.93
1081.87
1108.00
1413.26
1956.54
1821.17
1640.57
1254.97
504.61
551.17
916.78
1096.09
482.67
652.24
933.06
1003.71
1049.14
1118.83
1134.86
1232.91
1188.69
1140.01
1783.03
1967.81
1626.59
1134.82
772.83
586.75
488.17
503.80
651.19
1107.28
1296.21
1384.87
1731.39
1667.86
1459.90
1445.20
1307.68
1398.77
1139.35
623.21
1276.71
572.23
699.11
1409.18
1587.26
1134.24
1253.08
1236.47
2494.85
2688.41
2216.34
1768.38
1284.72
1185.20
1148.32
1206.40
866.03
1202.08
937.73
917.55
711.85
582.83
417.28
1600.60
1848.70
1997.78
1561.23
1984.19
1848.90
1752.27
1362.19
1286.75
742.96
705.32
1176.50
1522.87
1295.77
714.80
648.53
2101.86
2470.54
2267.33
1894.88
1249.94
1173.98
1141.97
1135.75
1128.04
1064.79
858.08
859.92
1258.76
1348.66
1350.48
829.44
475.23
824.05
1190.40
1186.61
1512.51
1499.23
1496.02
1681.13
1613.48
1055.09
1275.61
584.60
704.76
825.96
895.41
555.02
737.14
1002.18
1628.02
1693.14
1785.24
1213.58
1338.21
1108.87
1199.59
1442.29
1379.74
914.78
743.77
629.51
518.28
700.59
929.16
1495.65
2582.57
2782.55
2448.33
1928.60
1325.54
1168.40
1340.99
1461.13
1275.11
1300.69
582.54
432.04
358.60
811.68
873.24
634.21
738.94
1117.36
1571.82
1868.28
1763.29
1321.25
1282.70
2422.20
3432.08
3489.92
3405.89
3482.12
3532.17
750.34
3467.93
3521.03
3612.76
3492.82
3558.63
3429.69
1242.48
1075.19
1447.72
1215.18
1645.19
1481.51
1326.74
856.82
523.46
540.04
2927.74
543.01
572.47
574.93
1313.41
1147.65
1164.69
1077.15
1105.45
1169.98
1108.87
1071.25
1024.32
1222.69
915.81
1132.63
948.70
827.32
532.99
376.51
618.63
1276.13
1359.77
2056.30
2919.19
3430.97
3384.25
3503.95
3572.37
2419.67
1591.22
597.67
844.35
2519.11
3088.27
3333.70
3082.78
2514.81
1925.87
1427.32
1116.90
1041.26
1242.62
1077.17
1063.22
1630.90
1502.49
1073.96
520.00
376.01
896.97
1139.36
903.30
718.60
2295.47
3517.46
3480.61
2239.67
1316.29
1193.91
1510.53
1796.03
1855.68
1414.80
617.31
432.86
725.23
440.91
708.12
658.06
515.40
1211.81
1063.12
1228.05
1126.00
1387.04
1029.24
1313.81
2251.40
1699.41
1492.18
762.84
730.95
264.01
1009.42
1660.90
686.02
657.14
1712.66
1551.85
1912.29
2021.61
1998.45
1490.32
1363.03
1329.97
1521.11
1706.88
1626.27
3166.95
3393.87
3482.67
3378.88
2361.39
1364.31
3377.58
3541.82
3391.97
3459.44
3494.86
2499.16
1395.35
1057.00
1204.04
878.41
596.24
558.81
744.67
793.74
603.44
954.59
1546.52
2117.91
2573.33
1703.44
1239.69
1439.61
1081.17
1139.87
1394.32
1392.55
1139.37
863.16
625.33
803.86
574.74
813.54
1020.45
1794.76
1971.50
1753.04
1519.18
1185.65
1303.09
1493.15
2458.05
2981.03
2901.89
3021.68
3154.16
3405.28
1932.64
626.11
1535.16
2250.56
3059.57
3049.34
2898.45
2015.65
1206.06
1477.17
1669.15
1691.31
1578.18
995.79
885.31
950.29
709.33
542.28
460.02
706.43
1519.05
1826.73
1542.83
1077.01
1210.70
1237.52
1256.07
1683.22
1948.41
2202.89
2034.27
1265.52
516.07
471.63
814.45
716.71
869.01
1420.14
1262.70
1188.62
1043.67
1396.50
1369.03
1314.36
1361.21
1645.59
1788.06
1630.77
1502.25
1215.70
707.90
403.47
546.35
1603.17
1942.03
1355.33
1270.73
1132.80
1275.35
1237.22
1386.57
1437.13
1030.57
679.37
543.57
633.72
543.18
673.99
449.71
686.31
1402.40
2167.40
2173.46
2171.84
2573.02
2296.15
1914.75
1845.56
1411.88
1481.38
461.92
1156.15
2257.48
1165.08
736.59
537.08
1169.84
1694.91
1249.80
1094.53
1224.57
1406.01
1684.97
1926.61
1243.74
1195.49
1073.08
1200.73
1767.17
1688.30
1059.57
328.61
539.42
1044.73
2158.33
1756.19
2092.60
2058.97
2024.74
2239.26
2251.22
2601.64
2570.03
2110.08
1696.33
1700.50
545.61
737.99
811.04
849.30
2351.35
2761.41
1955.09
1298.69
1420.55
1214.25
2818.84
1453.75
1196.38
1587.63
959.13
801.66
665.73
665.95
717.84
687.05
981.42
2470.18
1826.38
2276.32
1391.98
1176.34
1232.70
1262.53
1699.76
1457.95
1200.76
526.89
2891.99
568.15
445.01
568.09
1042.25
1496.26
1194.02
1074.27
1232.31
1036.57
1361.47
1020.37
1183.17
1194.72
1476.58
1376.21
745.01
283.18
1298.01
2367.14
1903.70
991.16
1111.46
1141.16
1293.83
1029.45
1223.45
1223.05
1234.84
1273.30
1741.88
1717.72
677.89
514.21
555.93
695.06
860.58
985.27
654.34
1002.24
1190.37
1266.06
1197.05
1070.67
1114.09
1180.50
1404.04
1340.42
1330.20
775.42
711.70
689.56
707.83
665.14
495.83
814.13
1681.66
1322.57
1530.31
1322.15
1302.81
1546.31
1453.60
1370.17
1214.09
531.49
516.73
1787.95
498.70
718.98
733.79
494.08
1244.97
1343.40
1132.73
1156.86
1367.04
1830.08
1831.89
1443.93
1351.68
1152.16
1425.79
1531.52
1757.66
1010.47
612.93
886.26
779.92
1422.93
1726.34
1983.29
2127.29
3368.76
3549.60
3543.83
3418.09
2093.17
1187.96
1441.63
2094.76
3497.69
3363.35
2446.38
1832.13
1742.75
2043.75
1676.50
1583.52
1053.79
1079.76
1151.05
1422.51
1811.94
2187.61
2471.30
2369.33
1343.72
610.11
1205.12
2101.84
1897.06
1313.62
1447.21
1626.43
2196.75
2510.94
2097.24
1357.33
1217.30
1404.60
1321.37
620.05
564.31
564.16
526.38
443.85
514.33
864.02
1189.07
929.87
1306.20
988.53
1211.22
1008.77
1535.76
1321.87
1196.12
1029.26
570.53
632.04
588.63
558.94
605.60
687.00
1469.09
1788.10
1586.43
1398.92
1295.06
1268.94
1562.39
1569.35
1692.33
1140.07
732.92
771.14
1550.63
587.86
552.97
639.72
527.98
1125.33
1054.74
1151.66
1129.30
1078.61
1468.15
2947.69
1458.46
1598.62
1724.62
1278.26
1476.61
1999.23
2049.39
1184.30
733.75
828.39
1738.93
1489.65
1165.61
1202.36
1247.79
1294.56
1321.07
1519.61
1477.67
1442.43
731.45
519.53
705.02
483.43
661.98
528.21
1343.39
1287.70
1131.97
1195.12
1585.17
1943.99
1492.32
1302.18
2374.94
3517.44
2639.85
1477.17
699.82
514.26
1088.35
1144.02
1549.80
2947.19
3330.17
2580.55
1808.78
1475.32
1369.58
1285.27
1335.32
1310.11
1362.62
721.87
518.31
434.04
697.57
1074.07
1177.41
1190.79
1142.13
1074.49
1052.89
1263.65
1515.38
1503.81
1613.75
1491.95
1227.86
1226.51
511.32
1236.33
2722.31
2746.00
1550.93
561.60
1311.48
1800.04
1657.11
1600.16
1734.06
1430.32
1317.36
1131.23
1336.12
1098.43
1180.01
897.22
892.18
565.45
1079.89
1525.47
1177.56
1141.78
1193.77
1099.60
1160.74
919.60
1197.82
1235.88
1210.65
1386.08
1238.06
848.31
1104.42
1109.70
1445.59
1407.41
1615.23
2042.48
3524.00
3417.76
1996.76
1065.97
2010.80
2790.52
3031.58
2140.78
1493.89
1291.64
635.71
1237.93
2039.83
1858.84
1126.46
581.97
1123.16
2010.29
1893.14
1246.58
917.71
1226.79
1651.58
1252.53
1195.16
1223.34
671.29
525.34
390.53
407.12
573.73
807.04
1028.17
1629.02
1496.05
1590.38
1528.76
1367.48
1643.64
1388.50
1667.20
1650.55
1370.19
770.54
1203.17
529.17
1040.33
1209.20
992.03
830.20
1728.27
1766.54
1136.19
1135.09
1051.11
1505.27
1235.48
1128.14
1325.59
1451.80
1336.95
1439.23
1383.14
930.77
637.12
919.53
2049.73
1393.68
1324.73
1146.96
1052.44
1279.51
1805.82
2036.50
2816.87
3353.26
3498.56
3417.90
1466.76
1596.25
2855.89
3642.14
2780.37
2859.35
2237.94
1529.51
1159.27
878.97
2017.49
1281.95
1304.69
1132.69
1176.55
395.23
717.12
774.96
976.45
1247.39
2285.80
2625.12
3211.33
2347.60
1706.59
850.30
867.26
1334.31
1579.63
1237.75
1100.85
1506.81
3345.92
1565.33
1117.96
687.41
1260.53
1386.72
1082.14
1561.20
2190.91
2372.15
1694.39
3452.42
1208.79
1233.91
1207.20
1307.32
1232.54
1636.65
1814.67
1722.29
1266.88
1746.52
2712.79
1699.67
1345.06
1283.38
1552.92
1929.87
1883.58
1502.14
1362.82
1281.35
1364.26
2822.06
790.12
685.14
404.16
278.07
729.32
1099.00
1351.71
1372.53
1770.67
1373.47
2431.62
1703.97
2087.64
2136.06
2157.87
1558.45
1615.19
1414.26
530.22
543.38
963.10
1402.40
1220.38
1368.35
1372.11
1386.26
1173.52
1308.99
1352.54
1182.39
1425.73
1415.03
1463.27
1332.77
927.21
640.14
841.38
450.39
472.92
1155.98
1171.13
1266.80
1310.99
1054.55
1263.77
1924.16
1938.25
1765.58
1493.67
479.44
1439.19
1707.31
1562.95
1260.62
1146.52
699.52
1384.10
1650.53
1915.11
1463.03
1142.44
1539.08
1846.81
1424.34
1262.67
1136.05
578.21
1004.80
981.42
459.18
372.26
758.36
1270.83
1251.10
1404.95
1873.84
1838.83
1476.75
1090.61
1177.89
1320.08
1458.05
1269.23
1018.46
654.47
525.61
781.21
976.07
867.37
1359.89
1879.56
1577.65
1174.81
872.64
1267.97
1280.96
1295.88
1397.59
1252.74
601.17
614.28
751.55
599.25
439.23
540.46
765.45
1087.40
1318.85
1277.29
1205.82
1304.39
1304.21
1729.02
1838.61
1523.52
1170.81
963.63
852.34
1189.59
838.43
906.13
897.51
1001.21
1117.87
1157.33
981.59
1128.52
1303.98
1286.48
1369.92
1242.52
1077.11
729.87
620.58
342.39
658.17
397.57
518.44
408.19
1174.15
1194.11
1355.99
1439.09
1517.25
1534.19
1658.35
1758.55
1384.92
1272.89
847.21
1067.58
1334.15
809.95
529.75
1711.06
1642.05
1123.37
1133.68
1375.11
1182.53
1511.90
1279.72
1322.28
1208.34
1311.03
1411.74
452.49
786.22
895.46
1147.01
1087.55
772.30
1086.69
1295.32
1239.74
1183.26
1621.38
1488.60
1219.25
1112.05
1256.74
1197.04
1948.45
2528.98
2066.79
675.30
1245.01
1898.87
2018.77
2737.32
2882.05
2655.19
2133.02
1810.47
1468.94
1075.61
1719.59
1416.52
2322.17
512.18
610.06
986.44
1004.12
1349.90
1301.57
850.18
986.30
1187.63
1147.22
1740.64
2104.19
2706.47
2938.72
2598.62
1791.70
1104.24
969.20
1318.78
1333.23
1298.26
1748.20
883.15
1020.77
1355.48
1233.42
1172.96
1099.40
913.61
1353.64
1160.59
1411.15
2156.72
1017.76
640.60
898.01
719.47
525.75
509.61
376.66
1055.24
1232.08
1035.64
2240.33
1210.10
1111.02
879.28
1338.66
1217.74
1486.07
1068.44
877.12
812.11
1044.60
2347.76
1295.15
650.97
1334.68
1031.22
1294.55
1062.11
1153.25
1657.77
1772.58
1150.90
3298.71
1307.80
599.66
1462.64
1945.00
2121.98
1992.01
1375.39
931.72
1072.45
1580.98
3517.65
3430.35
3270.86
2909.21
2129.72
1401.35
1097.08
1265.66
1189.45
802.60
588.09
2102.16
1339.20
1170.38
1140.07
1172.99
1467.03
1442.73
1379.19
1481.45
1228.17
1403.00
1114.71
1839.10
1674.82
1099.80
808.14
922.47
676.03
842.78
473.53
1503.54
1176.75
1337.45
1202.78
1381.02
1830.39
1914.89
1776.99
1270.61
1212.93
454.74
886.94
1293.63
747.60
858.75
908.91
1078.31
1147.70
1578.56
1286.71
1191.19
1061.39
1030.95
966.13
1195.43
1219.41
855.82
471.75
413.52
444.84
606.34
621.92
378.52
1206.85
1182.94
1153.26
1380.80
1148.64
1342.05
1255.76
1537.15
1323.92
1398.56
700.34
711.72
793.20
414.36
686.94
450.97
1338.45
3022.90
3139.97
3056.48
2043.85
1712.88
1531.87
1768.00
1995.99
1816.78
1195.35
951.71
2653.54
3342.68
3486.14
2957.86
2667.81
1495.15
1260.77
1130.98
1263.01
1161.52
965.09
1426.41
1880.47
2470.42
2853.95
2067.30
1299.14
674.08
817.84
1291.58
396.43
615.07
1115.31
1192.48
1224.68
1480.13
1167.93
1509.65
1099.84
1352.24
1305.48
1083.18
989.50
875.67
743.42
515.49
442.94
737.39
590.28
1209.04
1019.17
1308.59
1013.08
1176.86
1240.75
1128.75
1054.39
1229.54
1248.33
501.92
670.49
633.81
687.82
617.70
415.88
1151.60
1670.31
2069.20
1700.69
1083.43
1122.81
1715.85
1518.80
1768.16
1322.78
606.14
475.82
493.93
758.52
667.79
396.57
833.48
1177.93
830.17
1033.59
1075.89
1046.98
1156.78
1164.67
1508.20
1373.45
1141.84
643.89
553.39
559.07
1210.45
975.10
696.77
597.59
1468.47
1202.42
1255.44
1202.01
1680.23
1648.55
1944.15
2588.68
3303.89
3312.75
2010.16
830.66
416.93
1185.83
1478.51
1442.09
2402.81
3464.37
3442.25
1324.64
1262.64
1510.43
1292.86
1307.55
1542.25
1327.89
1109.25
370.25
344.49
1277.46
904.60
651.23
889.69
2082.21
2272.95
1847.76
1481.18
1544.81
2605.80
3312.09
3562.16
3446.81
2505.80
939.02
1470.25
2905.59
2831.02
2256.43
1810.28
1393.12
1051.09
2163.80
1248.12
1092.52
955.24
1067.43
1340.94
1240.99
1000.52
1095.73
828.16
1433.96
2194.76
767.99
458.66
485.27
914.60
1111.25
1358.10
1286.88
1509.19
2037.21
2484.34
3017.83
2090.41
1663.44
1259.02
1037.72
1278.54
910.32
531.23
1805.90
2280.04
3050.65
3325.66
2285.69
1683.33
1305.21
1341.71
1217.43
1607.62
2029.24
2363.08
1073.88
682.57
2656.86
1085.99
1050.45
1243.09
1637.51
2541.32
2327.39
1958.84
1174.89
1057.41
1078.93
2779.24
1018.66
1114.47
1333.10
310.90
496.06
586.83
456.68
379.11
698.24
1371.83
1152.63
1200.13
1085.41
1072.37
1025.11
1357.89
1376.46
1698.46
1631.42
2001.40
2085.21
1362.27
748.38
497.51
1047.32
1314.92
905.52
1573.74
1498.16
1819.73
1685.56
2103.90
1820.54
1630.27
1563.56
1579.12
762.71
441.61
965.05
1265.96
757.62
729.09
598.78
1171.86
1245.40
1207.79
947.28
1333.42
1212.48
1340.46
1053.02
1217.95
1048.55
529.05
415.26
557.53
646.28
833.54
1203.20
1370.40
1974.83
1593.38
1369.05
993.15
1414.96
1545.14
1498.87
1783.42
1746.76
1702.80
1940.45
1992.72
932.04
1049.76
2680.01
2260.44
3240.77
2262.72
1577.29
1252.84
1465.00
1122.25
1159.10
1177.69
1517.03
1604.92
1265.92
1193.07
976.24
456.33
720.14
961.76
569.26
1353.93
1510.16
1743.29
2164.66
2577.50
3045.70
3024.00
2310.66
1744.26
1304.43
551.01
881.83
1193.45
1206.16
1515.43
1939.58
1845.40
1181.84
1164.24
1112.43
1179.43
1083.81
1098.45
1031.95
1333.09
968.54
1273.32
2056.03
1827.40
778.54
649.57
378.95
672.71
1830.82
1763.88
1243.97
1183.83
888.76
1345.73
1397.60
1507.22
1487.68
1211.19
610.14
415.98
309.17
528.16
350.01
387.61
586.94
1316.76
1185.11
1192.63
1007.62
1206.89
1178.79
1209.85
1207.37
1247.03
1309.48
732.49
1032.43
609.48
863.55
1308.65
1629.90
1550.39
1895.48
1955.32
1949.82
1675.97
1492.43
1629.38
1072.68
1285.75
1115.77
1160.32
293.91
457.66
676.30
705.03
565.62
715.00
1447.25
1217.53
1715.14
1960.18
1251.15
1160.11
1223.86
1212.96
1260.85
1463.22
1227.54
1929.34
920.31
414.65
549.53
847.11
1119.89
2371.73
2736.01
2943.37
3439.17
3469.43
3468.21
2706.46
1167.04
1755.18
2427.45
2133.60
1375.92
541.36
395.17
583.87
530.86
2591.53
2081.36
2290.29
2892.50
2070.20
1239.35
1104.27
1382.31
1224.47
1052.81
1065.29
1527.23
1454.54
2108.15
1832.55
916.26
531.02
1607.06
2434.22
2610.46
1784.17
1247.28
2500.64
1666.82
2037.67
2102.81
1990.32
1258.37
606.54
300.95
933.56
1322.52
431.85
1946.81
1171.03
1061.83
1096.45
990.36
1231.84
1037.86
1168.27
1395.54
1471.98
1399.34
2571.28
678.49
827.50
1250.29
1507.69
695.95
857.87
2100.58
2968.76
2448.56
1803.80
3152.61
1523.30
1115.21
1195.60
1013.20
1203.45
498.42
465.97
785.57
1325.76
1431.16
2352.28
1190.97
1479.73
1836.64
1737.67
1201.39
1155.47
1089.07
1254.80
1557.85
1460.31
618.30
525.25
799.01
1082.23
629.23
559.28
764.19
1856.92
1882.90
1527.10
1279.17
1405.59
1445.46
1500.26
1076.37
1482.34
1283.20
1022.48
1193.07
964.41
683.30
530.26
497.32
981.43
963.14
982.66
1207.08
1218.16
1027.03
1171.30
1260.23
1228.50
996.23
1045.04
856.46
775.90
923.00
1094.14
1108.32
1309.94
1313.39
1294.64
966.15
1196.62
1031.24
1672.65
2068.02
2202.54
1978.95
1529.75
802.98
1025.87
620.85
451.22
418.53
605.03
976.38
1535.45
1557.95
1710.28
1203.99
1196.17
1933.45
2410.12
2002.65
1251.66
1108.52
494.58
382.51
616.54
1176.85
1282.25
1077.03
689.67
889.98
1127.23
1237.61
1152.87
1260.00
1514.51
1262.67
1438.36
1214.97
1201.84
668.04
622.72
664.88
1034.84
824.13
773.89
1216.44
1345.99
1578.85
1376.43
1257.05
1058.55
1461.54
1647.52
1479.67
1103.03
689.61
601.70
946.41
1189.87
1150.65
1347.91
1164.66
1887.66
1557.09
1428.30
890.72
1299.20
943.23
1184.43
1307.17
1136.47
1152.89
377.99
527.55
471.16
893.89
1166.08
1612.46
1240.82
1088.57
1301.90
1305.14
1360.10
1130.38
1125.69
1175.48
1277.82
1111.22
1369.17
1446.50
1216.63
617.19
782.02
677.13
565.83
1242.36
1340.18
1105.01
1440.67
1399.76
1308.67
1182.65
1150.06
1214.11
1517.83
952.33
1044.82
2021.28
1976.31
1739.70
1860.86
869.63
1372.18
1601.98
2209.28
2500.04
1503.70
1185.09
1304.73
1143.01
1289.72
1676.99
594.05
808.46
1166.59
691.42
773.74
1322.57
2290.14
3553.67
2721.30
1881.29
2046.39
1228.32
1320.68
1280.26
1476.55
1506.59
1933.71
1294.67
633.20
312.53
959.90
1812.90
1734.21
1471.38
1507.64
1215.61
916.24
1009.13
1194.37
1191.74
1306.59
1171.21
2197.74
583.65
812.86
596.36
469.69
367.59
1120.05
1252.35
2140.00
2306.19
2386.03
2106.42
1034.28
1211.89
1142.36
1102.28
1146.67
1353.50
950.61
703.06
534.45
446.43
2108.71
510.59
963.94
947.74
1376.00
1829.91
1230.99
1141.51
1562.50
1532.88
1378.67
2390.13
1485.47
745.22
604.58
565.83
716.57
652.15
653.35
1191.30
1383.90
1725.98
2647.26
1635.92
2449.08
2374.93
1621.46
1039.86
1256.11
537.28
527.00
337.47
661.27
2824.95
1804.66
1465.99
1314.49
1244.12
1229.61
2185.02
3427.13
2620.37
1466.81
1170.04
2282.86
1178.69
997.83
1495.62
1851.44
1649.96
1111.84
509.67
648.10
1019.77
1019.22
1421.52
1155.52
1500.90
1474.80
1269.29
1290.77
1164.19
1265.80
924.05
1365.59
775.29
712.83
264.77
320.79
1024.75
1170.78
1004.02
1084.25
1046.10
1230.21
1357.02
1122.07
1178.09
1133.15
602.85
470.53
530.21
752.26
929.26
672.57
782.97
1551.97
2010.38
2095.33
1786.46
1854.83
2201.93
2519.80
1661.45
1406.30
1472.52
1230.76
376.21
1950.77
2533.32
2262.53
1293.62
759.46
1252.47
1139.93
898.05
1100.28
1019.87
1504.99
1588.65
1595.79
1638.29
1269.35
424.93
471.14
523.49
853.91
500.28
793.46
1052.87
1611.48
1656.67
1390.95
956.52
1469.78
1146.18
1197.56
1146.57
1417.82
912.48
1121.29
958.35
810.21
553.94
727.63
2230.26
3516.26
2085.44
1160.26
1149.17
1800.18
1711.17
1310.53
1076.59
1421.62
955.60
1077.41
1181.54
1276.53
1261.44
1072.46
424.61
1333.00
1459.34
1200.79
1193.37
1170.27
1411.13
1630.86
1113.95
1237.84
1182.02
1303.14
982.61
1179.45
1177.35
1135.39
606.79
472.98
1027.77
1375.19
1345.11
1752.21
1942.95
1366.17
1137.46
1173.37
1276.84
1262.12
670.83
444.66
820.40
354.94
937.91
1053.62
1067.52
1779.97
1690.35
1930.92
1420.33
1390.75
1277.95
1259.57
1048.02
1287.72
1130.07
719.74
614.21
580.14
895.83
1452.93
1077.22
1239.71
1391.07
1412.68
1440.98
1205.15
1358.13
1105.75
1031.66
1422.11
1233.65
1570.16
2124.09
2008.01
1539.49
415.39
525.98
596.56
1017.82
1209.25
1404.99
1463.70
987.92
1265.38
1200.32
1356.94
964.01
1290.24
1042.50
1273.84
890.06
1482.93
536.85
1102.99
662.61
1269.03
1569.32
1715.74
1210.33
1130.30
1139.03
1253.61
1609.27
1202.16
1162.76
599.29
555.00
471.16
606.73
1344.68
1286.75
698.33
1459.94
2449.04
2173.82
1774.97
2111.74
1641.64
1385.51
1289.46
1221.04
1377.39
1489.83
1503.89
2149.10
685.10
860.79
1357.13
1171.15
1173.08
889.10
1153.02
861.35
1291.61
1162.23
2630.47
1176.92
1552.81
1686.10
1164.39
1181.45
1326.61
963.32
626.25
850.12
1060.41
2694.85
1521.75
1225.61
1223.26
1174.61
1120.36
1972.94
2133.03
1345.18
640.94
548.73
3010.87
1709.22
2006.75
1484.52
857.83
1245.72
1107.82
1102.82
1086.83
1011.73
1248.59
3437.46
1162.27
1175.38
1286.66
654.67
702.91
714.24
679.38
579.96
734.62
1295.08
1962.90
1815.41
2214.71
1602.45
1509.96
1762.70
2886.67
3571.75
3372.52
1679.41
810.45
1217.20
587.43
676.39
800.50
600.68
1328.72
1014.73
1339.66
2169.41
2657.11
1772.49
1249.35
1081.75
1394.27
1463.49
1164.58
704.10
627.57
1190.51
1158.39
983.36
528.02
1398.09
2558.48
2673.88
2164.37
1524.30
1215.28
1308.93
1116.13
1383.77
1601.68
672.50
604.45
602.55
603.68
509.75
664.24
1189.33
1235.90
1281.09
1171.04
1104.90
1080.58
1326.78
1311.01
1196.32
1452.44
1106.21
741.99
432.45
577.05
817.92
637.36
550.71
1056.57
1205.83
1279.39
1153.66
1116.32
1390.44
1327.04
1304.73
1413.04
1961.31
1951.18
1264.60
732.25
1440.71
1451.88
809.03
657.68
992.53
960.55
1048.38
1271.69
1967.36
1647.25
1246.69
1405.63
1244.05
1155.98
660.67
637.99
1078.32
1680.55
1691.82
1376.51
1388.41
1743.60
1491.25
1519.76
1059.44
1286.90
1169.87
1111.72
1302.29
1378.16
989.91
1236.44
1359.16
1146.07
850.58
649.80
396.43
1451.50
1142.78
1350.22
1408.54
1406.44
1212.46
1294.68
1213.02
1479.92
1414.50
1004.55
1047.83
1156.06
1206.65
1395.38
1096.13
1075.36
1303.41
1268.70
1133.02
1611.51
1178.70
1298.29
1258.97
1220.22
1146.29
1341.52
635.80
1338.99
1565.21
1271.54
1057.08
676.88
983.28
1183.11
1432.38
1498.02
1776.80
1406.99
1271.07
1362.62
1417.51
1879.40
1255.14
704.27
449.70
357.02
498.73
667.99
1030.32
2753.74
3415.64
2891.76
1525.78
1201.56
2105.86
1816.77
1346.03
1338.48
1660.18
1273.37
1180.85
1132.36
631.02
621.85
599.11
1275.65
2138.50
1706.61
1520.68
1107.61
1098.90
2287.30
1191.86
1218.48
1554.71
1555.50
850.20
690.63
533.91
649.54
1490.50
1948.92
2212.31
1943.86
1419.10
1543.16
960.17
1330.21
1061.55
1219.72
1104.62
1389.72
1672.67
3356.70
3486.52
3592.25
2914.51
998.98
1119.77
2679.78
3511.70
3524.05
3328.96
3531.20
3543.27
2149.95
1376.76
1285.76
1247.98
1077.90
880.64
702.60
932.29
1320.35
1925.67
2453.93
1947.52
2114.95
1753.38
1191.56
1431.19
1165.62
1153.15
1321.36
1598.71
1276.23
2234.74
1180.85
1278.05
998.24
641.09
716.28
1082.33
980.13
938.63
1306.79
987.03
3546.01
1198.75
1242.86
1472.12
1312.51
1131.23
1114.38
1064.49
378.03
962.17
1437.75
2809.26
1925.63
1796.68
1842.79
1686.96
1964.36
2027.65
1506.72
1004.93
1271.22
1095.24
1055.90
923.80
890.18
572.62
674.24
784.17
775.50
951.87
1140.80
1016.90
1573.77
2335.16
1012.04
1210.05
1277.16
1423.41
1394.45
519.53
501.40
529.82
703.51
980.10
718.60
711.44
2047.22
1599.53
1262.76
948.44
1277.28
1155.16
1305.18
1250.88
1632.24
1361.91
1020.20
966.58
692.76
496.83
502.35
993.54
1859.51
1538.13
1443.16
1047.61
1455.92
1725.54
1511.04
1259.74
1378.32
1219.74
581.44
697.62
1180.35
1183.62
1275.46
1098.18
1562.38
2187.00
1721.57
1979.86
1389.35
842.93
1046.47
1223.57
2089.20
1958.21
1332.89
544.02
588.13
923.39
732.61
733.44
806.45
1089.01
1210.44
1413.86
1121.71
1409.20
1915.56
2362.05
1393.83
1122.84
1583.24
3326.16
3547.89
2914.25
1016.02
616.01
757.90
859.40
1143.41
1469.22
1447.15
1241.99
1191.32
1481.75
1294.48
1186.84
944.77
1326.50
1008.68
529.78
524.88
903.17
1064.93
644.59
575.91
1241.96
1229.15
1321.50
1692.87
1667.58
1186.50
1282.40
1239.03
1573.93
1547.47
540.70
887.58
734.47
1643.82
2221.69
2610.06
2355.88
2709.88
3080.46
3095.35
1559.37
1265.11
1148.07
2064.80
2400.57
2343.43
3582.54
3082.24
2402.67
988.05
564.81
439.01
619.51
1081.35
1303.06
1320.86
1240.93
1559.76
2008.60
2341.95
2447.78
2016.16
1954.49
1010.19
501.13
1035.30
583.98
807.50
1603.34
1830.39
2040.53
1419.21
1192.78
1266.27
1164.21
1580.71
1700.04
2303.97
2751.55
1746.04
642.03
1184.17
2141.59
2793.99
2297.17
2276.18
2814.15
2881.04
2660.64
2267.18
1567.46
1344.26
1596.41
1318.03
1553.49
1804.20
1161.05
897.55
585.68
732.01
567.99
1729.17
508.81
1218.07
1923.20
2126.67
1882.84
1269.93
1571.67
1614.34
2071.45
2805.67
3232.47
1895.16
512.00
495.31
546.79
579.10
1937.22
2338.22
2020.08
1184.53
1226.29
2153.07
1014.58
1222.45
1131.52
1621.22
1655.60
1856.62
1444.62
1488.63
1547.47
1915.08
2160.79
1161.46
623.80
1218.69
1228.11
1160.80
1100.62
1454.47
1401.87
1301.89
1335.07
2371.23
790.19
1156.33
1195.87
936.42
524.19
671.95
642.48
1642.45
2092.31
1715.29
3088.50
1324.22
1188.99
1265.85
1160.71
1376.09
1294.00
668.59
474.65
513.09
912.22
2661.28
546.34
418.07
1483.43
1551.40
2019.54
1224.76
1206.25
1449.52
1345.91
1487.67
2787.09
1517.44
1191.19
907.73
693.26
597.24
1487.02
999.17
807.39
1271.34
1066.78
3523.12
1096.99
1395.84
1011.52
1198.84
1029.12
1200.44
1392.55
1210.75
778.09
603.25
1071.31
765.49
1908.51
2870.64
2321.21
1426.69
1012.45
1098.15
1139.06
1202.70
904.22
1258.99
1392.86
1092.01
1549.16
1226.91
391.36
859.11
1153.23
1552.48
2051.07
2024.57
1815.82
1672.61
1169.29
1122.57
1259.17
1192.76
1364.16
1194.92
876.03
1059.46
1108.09
1245.80
931.51
1479.97
2379.83
2471.25
1652.13
1448.75
1007.94
1265.56
1237.94
1192.41
1152.80
1261.74
820.64
702.59
794.38
588.98
393.15
595.90
651.14
1819.89
1558.95
1997.87
1732.46
1065.94
1139.24
1212.89
1383.00
1624.25
1260.60
722.42
721.81
1039.28
1024.56
779.87
438.72
440.54
1169.02
1298.21
1289.20
1180.05
1883.87
2266.43
2097.79
1603.77
1224.37
1119.68
527.73
674.82
704.91
940.87
813.82
1375.86
1565.77
1189.46
1139.99
1231.56
1112.18
1188.18
1789.47
1874.69
1470.09
1271.39
930.99
543.68
521.35
531.36
800.42
1042.90
778.90
1638.72
1831.55
1979.22
1341.02
1337.88
1481.02
1091.40
994.84
1242.73
944.00
501.32
1235.42
1288.16
708.02
719.30
791.35
621.82
1188.06
946.69
1314.90
1384.14
1399.36
1063.76
1147.40
1223.55
1218.97
1217.36
570.83
504.51
461.55
743.68
861.64
870.47
638.09
1427.96
1844.11
2383.41
2108.30
2304.98
1368.39
1200.08
1503.19
1479.05
1133.08
475.98
372.73
493.06
449.06
591.55
626.04
1587.05
1300.65
1403.33
1023.25
1630.75
1760.92
1361.37
1700.43
1820.01
1442.88
1491.62
1425.74
1240.24
1320.89
681.08
751.67
889.98
1145.80
1300.61
1224.50
1235.29
1332.97
1415.20
1321.63
2292.15
1398.36
1096.59
544.86
274.75
530.62
704.56
832.11
659.98
840.75
1314.46
1738.21
1128.96
1033.60
2012.75
2498.54
2001.60
1832.42
1173.94
841.49
838.88
552.64
1967.87
1182.31
796.09
824.22
1737.09
1853.30
1737.49
2533.84
2823.47
2719.96
2388.14
2278.12
2078.42
1684.43
1439.28
719.66
457.57
498.60
948.33
1554.88
868.50
1212.22
2816.70
1933.07
1177.78
1079.79
1259.35
1085.62
1276.40
1047.21
1302.03
635.74
689.57
2186.53
675.88
450.47
1123.14
1927.89
1534.14
1172.64
1172.91
1287.18
1711.39
2050.53
2833.34
2138.56
2257.57
1903.65
1043.65
1028.12
1366.30
745.32
478.64
533.08
1212.87
3478.14
1384.77
1152.35
1101.50
1108.29
1119.39
1331.25
1267.39
1099.85
627.27
577.03
2427.15
709.86
925.27
753.27
420.55
1094.10
1690.72
3616.31
3449.39
2609.79
2076.59
2146.51
1249.82
1340.26
1643.18
1740.66
1304.95
542.98
808.94
701.61
800.87
650.20
1177.37
1001.78
1196.96
1149.86
1072.20
1393.23
1581.53
1223.21
1305.50
1521.85
933.05
584.68
767.20
795.83
1118.77
730.02
1048.72
1286.42
1141.86
1653.63
1259.86
1273.42
1609.56
1603.03
1516.47
1794.46
1846.26
1764.23
2120.31
1727.81
1418.31
790.85
733.93
1242.88
1460.80
1126.66
1024.51
1102.10
1123.65
1199.49
1226.49
998.07
1144.95
717.69
766.56
799.85
1040.89
831.57
601.90
807.20
1308.35
1076.31
1147.79
872.98
1339.36
1421.41
1396.40
1165.60
1287.46
937.65
626.03
474.65
532.03
591.43
604.47
720.66
1225.22
1493.38
1337.94
1108.61
1154.33
1306.29
1602.80
1851.46
1756.48
1468.69
845.85
687.07
1071.68
1444.01
1609.67
973.19
659.13
1003.79
1240.69
1215.16
1146.19
916.57
1327.10
1774.51
2066.82
1906.83
1813.18
897.50
432.68
795.12
867.61
907.58
504.04
710.82
1349.53
863.32
1203.38
1334.86
1528.08
1367.60
1337.40
1220.97
1181.14
1259.83
1081.27
799.03
822.29
994.99
846.21
750.60
1025.12
1473.13
1780.81
1633.46
1389.29
1484.55
1650.36
999.05
1288.16
1238.13
790.17
526.14
601.59
531.89
580.48
513.92
809.73
1316.36
1349.09
1667.75
1604.09
1254.52
1016.94
1020.74
1324.85
1241.41
2051.93
2247.58
2352.95
1465.20
1129.54
930.88
610.44
602.28
1734.57
1849.20
1852.88
1054.82
1098.81
1426.09
1271.75
1264.70
1366.26
989.84
420.81
553.78
1115.01
2010.45
1855.60
965.97
2378.99
1348.41
1381.42
1052.57
924.53
1069.56
1250.23
1340.56
1470.95
1514.36
1435.73
1376.03
578.22
889.19
1318.77
1339.34
860.62
1099.69
1117.94
1541.78
1325.06
1210.55
2097.31
1258.96
1111.24
1116.36
1184.30
1108.34
573.29
426.03
520.55
400.40
746.53
1425.50
1265.58
1103.21
1198.78
1206.07
1216.67
1192.54
1222.98
1158.04
1287.23
1244.49
2045.41
1170.15
836.99
730.17
1518.05
2441.29
2604.18
2205.84
1945.16
1537.67
838.26
2754.84
1079.84
829.92
1226.14
982.21
948.26
883.55
662.84
471.61
440.23
313.99
2730.53
1067.68
1401.97
1711.94
1564.75
1390.06
1172.07
1219.00
1403.03
1498.66
1657.71
2451.66
1333.37
1042.10
364.77
483.41
691.90
1125.59
1869.64
1330.18
1584.71
960.67
2836.11
1299.30
1335.22
1313.09
1460.66
1525.84
1123.04
567.25
565.17
767.91
872.31
1138.21
1450.60
1271.00
1468.55
1334.03
1170.64
1486.88
1901.43
1899.91
1834.33
1480.23
804.31
917.07
858.43
864.91
842.78
598.60
698.46
1096.47
1149.25
1639.37
1326.28
945.37
1389.10
1560.08
1921.43
1753.05
1394.17
619.82
558.93
359.95
668.69
630.77
459.41
805.06
1271.33
1133.03
1292.35
1137.48
1720.83
2769.12
2853.04
2038.59
1313.93
1106.11
1837.79
2100.06
1949.78
1457.83
1518.00
1416.64
1136.73
1209.37
1699.31
1549.13
1307.22
1796.37
1806.15
1607.83
1216.95
1412.29
719.90
412.61
558.65
670.45
1051.12
855.25
976.56
1464.13
1269.29
1627.94
1587.96
1344.74
1404.16
1226.55
1357.59
1282.22
1451.23
1543.50
1145.53
1037.59
880.47
937.28
1262.99
941.79
1517.43
1212.06
1368.78
1111.21
1392.17
1744.02
1674.42
1369.83
1328.58
1411.41
777.79
668.26
563.43
671.35
529.89
450.23
1159.37
1305.44
1341.83
1326.81
1284.49
1861.87
2056.07
1698.86
1215.57
1179.11
1063.01
508.51
715.10
1863.93
2592.12
2422.29
1720.32
1355.88
1536.11
1427.55
1516.98
1295.47
1481.85
1573.56
1868.29
1817.64
1320.63
502.27
1575.47
2116.91
1644.56
884.94
824.21
1270.10
1484.07
1298.65
1408.02
1346.88
1706.73
1553.37
1389.77
1420.88
1255.41
1413.02
755.27
902.95
553.24
598.78
908.37
1062.47
1739.30
3097.83
3394.86
3117.21
2839.96
2607.71
2441.54
1965.56
1252.51
1522.20
1867.81
1850.15
1447.43
1206.65
633.25
1064.29
909.39
1309.29
1230.71
1338.89
1260.50
1164.09
1378.38
1747.16
1419.79
1164.29
2213.43
1051.24
1089.17
598.02
571.46
610.90
693.44
904.07
1464.53
1368.27
1284.42
1714.12
1451.65
1496.80
1131.76
1708.37
1836.85
1836.98
1494.66
880.13
749.83
457.65
2023.83
370.79
1107.69
1294.03
1260.10
1410.82
1440.24
1251.74
1164.29
1172.59
1384.48
2047.38
712.41
514.47
691.40
1015.93
837.32
570.81
794.68
1536.50
1959.21
2257.31
2481.16
1800.97
1967.82
2399.90
2503.28
2322.54
1271.41
1099.68
1882.98
1882.16
1146.71
2930.13
1533.53
1802.74
1784.62
1485.20
1578.97
1153.32
1107.55
1298.27
1542.57
1374.61
2928.95
1547.81
801.67
931.87
813.65
554.70
378.15
415.78
1004.91
1427.65
1198.68
3379.84
1049.13
1489.22
1546.30
1320.56
1632.29
1620.33
1468.98
1479.55
1559.28
1183.90
2485.58
480.20
616.41
1024.10
1228.55
1024.79
1136.80
1229.86
1363.70
987.25
1584.23
1580.27
1321.83
660.00
596.70
749.36
1065.39
1396.23
1202.49
1169.86
2207.99
2176.52
2396.60
1615.46
1252.69
1174.23
1063.21
1154.61
1349.53
1417.09
1567.12
1270.69
653.11
1126.56
1389.68
1108.95
1463.34
1476.20
1603.08
1554.50
1249.92
1165.59
1128.99
1462.25
1453.36
1473.81
877.74
643.17
550.16
657.12
1263.03
758.48
563.94
1254.86
1229.30
1383.10
1290.36
1743.39
2482.69
2004.34
1456.40
1296.73
1323.00
549.83
748.69
464.01
768.98
1225.77
1067.92
880.07
1415.73
1237.47
1259.35
1139.63
1184.04
1281.41
1371.33
1259.45
1530.53
1208.19
667.44
601.75
1223.91
751.44
1103.92
968.85
1047.48
1486.58
1212.57
1186.87
1123.96
1350.98
1274.19
1443.40
1451.05
1463.99
853.00
672.35
557.82
547.66
767.11
610.13
711.74
1081.42
1073.63
1190.63
1087.70
1158.77
1265.30
1211.20
1294.58
1526.93
1451.26
724.98
494.06
545.41
415.46
458.91
1154.48
1936.87
3351.50
3488.29
2596.40
1128.86
1014.23
1036.89
1271.56
1175.48
1279.69
1384.17
697.80
438.21
1279.12
1819.84
1568.31
1536.01
1068.86
1109.07
1769.96
1202.44
1206.68
2287.80
2116.09
2048.18
1674.63
1251.52
646.29
868.84
666.44
426.18
919.85
1089.79
1471.69
1743.46
1899.07
1945.11
1185.80
1006.54
1216.68
1223.33
1325.72
1448.00
1334.42
604.32
439.07
563.27
814.72
554.29
881.61
941.08
1276.20
1424.57
1265.73
1025.02
1163.20
1175.58
1132.83
1631.70
1285.94
1470.82
1821.37
1864.37
1732.86
1347.47
1183.95
1140.21
1063.58
1045.35
2605.35
1233.14
1344.37
1500.00
1320.91
1975.36
2796.60
2901.90
1233.35
819.21
1626.86
1945.54
570.54
621.72
630.89
1457.00
1495.08
1074.78
1190.47
959.13
1194.56
1309.66
2667.58
1103.74
1761.38
2067.10
2063.77
1795.41
1462.29
752.78
955.28
1778.39
1925.09
2592.08
1072.18
1212.93
1560.70
1411.03
1325.81
1427.66
1209.76
1230.56
699.83
537.52
1968.68
844.80
644.50
691.08
1242.67
1814.02
1438.72
1418.14
994.22
1283.75
1035.55
2761.65
1113.87
1209.85
973.39
1159.37
849.58
727.18
808.98
901.78
777.77
1495.12
2610.62
1744.82
1268.62
1584.53
2092.12
1946.51
1471.19
1093.14
1083.15
1165.71
1404.86
3473.02
795.70
652.47
780.41
643.19
987.48
1075.70
1079.40
1174.36
1175.54
1445.42
2915.91
1166.21
1396.92
1633.62
1474.59
829.78
792.23
831.44
823.73
785.64
787.18
1268.91
2374.09
2870.05
2056.71
1655.77
1467.56
1465.54
1635.58
1924.74
1875.35
1644.73
1231.25
918.45
681.20
355.67
629.04
1908.81
3249.24
3386.72
3444.78
3428.08
2109.21
1194.92
1472.03
1761.67
1623.21
1263.15
1175.35
653.97
668.21
838.43
551.56
635.16
1469.19
1786.09
1563.51
1709.15
1958.34
1689.69
1455.15
1403.30
1364.21
1436.95
1266.26
1406.56
1466.96
1370.67
731.09
579.47
892.98
1388.17
1150.98
1107.85
1164.18
1209.93
1001.22
1315.65
1302.84
1369.63
1292.28
1699.54
2280.71
1434.78
779.97
605.94
742.48
1273.31
1536.99
1385.98
1125.26
1126.92
1105.95
1385.99
1335.65
1673.62
1387.38
540.89
932.16
846.25
577.74
710.26
1105.94
1199.05
1307.98
1148.46
1087.82
1118.67
820.24
1142.82
1718.36
2015.86
2094.68
1488.88
601.05
449.60
696.91
777.79
882.78
899.76
1777.19
2399.92
2124.47
2233.43
1534.30
1193.67
1212.43
1147.01
1273.78
1254.15
1041.40
535.90
821.21
1032.77
629.86
370.45
727.91
1144.32
1199.35
1377.62
1430.74
1331.19
1076.18
1276.14
1255.18
1518.49
1431.86
667.31
716.91
576.61
630.23
506.98
848.95
791.70
1905.63
1521.39
1535.29
1172.41
1698.42
2092.50
1547.17
1190.83
1512.31
2001.00
1922.54
1294.79
665.18
1118.87
1530.17
823.58
898.95
1163.14
1087.51
1127.14
1204.61
1149.32
1365.88
1123.71
1221.02
1238.44
1224.35
918.31
847.98
750.20
831.81
698.05
872.80
2068.81
2128.52
2064.50
1618.03
1267.84
1192.33
1310.29
1116.76
1378.15
1390.42
728.44
1992.58
867.67
1064.29
927.13
731.27
578.08
1109.14
1332.15
1276.24
1174.19
1240.54
1616.78
1173.61
1442.79
1684.49
1797.57
1774.81
1301.98
686.02
628.49
545.13
511.65
1959.39
1483.61
1544.64
1077.79
888.05
1050.51
1170.94
1085.20
1363.94
1090.03
991.85
1554.49
856.09
1106.91
920.30
647.78
824.66
979.13
1244.97
1470.95
1135.42
884.68
2354.54
1606.04
1322.56
1174.68
1197.16
968.45
1030.94
1175.85
1291.19
1169.38
1235.04
2475.03
2475.66
2214.22
1647.50
969.12
1422.88
1819.32
1426.22
1073.78
1342.39
1313.78
2295.17
1077.06
1310.57
1715.57
1681.09
707.55
904.39
1873.88
2163.43
1377.59
1097.96
3460.55
1318.93
1320.73
1580.03
1508.44
1484.91
716.07
