1345.43
1423.74
1390.40
1399.53
1415.39
437.43
625.59
415.32
553.55
683.50
774.27
545.48
2463.02
1165.62
1354.99
1276.55
1213.72
1283.20
1376.12
1179.79
1412.82
792.17
909.42
2036.75
977.43
975.43
967.77
914.70
1747.22
1758.95
1872.75
1552.24
1437.71
1438.11
1418.81
1493.92
1216.79
1107.72
664.69
643.71
664.32
620.60
462.44
563.15
630.00
1289.87
1542.45
1375.60
1043.75
1304.59
1399.83
1563.10
1553.23
1760.43
1879.27
1474.86
1501.90
2287.50
2181.15
2115.33
1719.28
1323.77
1375.16
986.84
1350.40
2255.90
2378.71
1911.07
1722.33
1139.40
1292.43
880.17
1079.24
1021.96
989.95
576.92
540.21
482.32
1136.79
1722.37
1383.09
957.25
1024.01
1101.75
1398.98
1295.29
1279.53
1319.47
963.81
1203.45
1567.06
978.47
854.51
1139.60
1006.26
1587.40
1329.62
1396.03
1033.76
1025.78
1366.07
1863.24
1407.50
1544.68
1376.27
608.10
667.71
481.37
362.60
593.64
583.18
594.51
1806.14
1211.04
1172.38
993.96
1281.51
1260.27
1397.18
1246.80
1211.27
984.20
893.35
1606.30
781.13
802.62
729.52
961.60
1219.60
1256.50
1477.09
1046.33
1407.83
1525.52
2654.06
1218.92
1507.66
1351.07
640.15
587.33
525.11
713.96
521.60
476.33
557.07
1325.39
1717.23
1188.97
1032.18
1155.10
1295.41
1202.93
1435.89
1374.07
1348.71
681.01
909.85
1348.53
698.76
747.06
839.86
725.74
1773.73
1395.60
1404.90
1188.56
1508.19
1186.97
1394.31
1395.24
1307.10
701.08
723.50
784.39
617.04
424.51
588.02
508.39
1294.70
1631.23
2725.24
1934.92
1527.20
1400.02
1635.31
1820.43
2356.48
2763.59
2107.36
1688.49
974.59
3585.57
2044.94
2284.11
2651.25
1433.66
1299.86
1094.42
1035.20
1222.98
1201.44
1264.72
3902.56
1492.22
1351.98
333.51
508.06
621.95
645.15
661.52
616.63
728.47
987.61
1156.53
1383.93
1024.18
1340.69
1616.71
1379.55
1366.42
1606.70
884.52
813.25
715.11
912.61
977.81
985.65
1005.37
1301.69
1617.78
1509.47
1434.18
1266.54
1461.49
1257.26
1381.43
1332.25
1278.79
512.95
274.72
481.42
837.29
669.78
828.49
482.04
1165.62
1307.66
2868.94
1091.89
1116.73
1411.56
1521.37
1621.55
1312.88
1377.76
1044.15
878.81
766.56
2673.44
955.02
1014.50
931.45
1514.42
1455.99
1362.28
1026.41
1338.69
1189.45
1370.50
3863.49
1376.64
700.69
542.35
633.60
540.01
602.29
716.86
632.52
1363.21
1287.97
1373.12
1297.91
1288.47
1277.75
1506.68
1549.91
1467.26
1524.58
763.29
887.42
1033.14
1065.69
1505.30
973.81
1019.09
1436.63
1503.93
1284.84
893.75
1279.28
1147.29
1312.52
1344.51
1577.46
1220.81
740.93
513.46
470.20
710.26
539.82
505.87
665.79
1270.65
1329.88
1222.58
1158.03
1208.28
1642.59
1947.45
2370.60
2331.57
2243.03
1795.76
1193.40
897.04
914.32
1362.24
1913.24
2699.35
2672.03
1471.94
1144.48
1556.05
1739.99
1436.88
1285.74
1632.17
2194.44
2174.60
1968.40
1460.49
1402.19
938.96
726.93
603.84
1309.48
1119.43
1248.99
1208.52
1202.55
1224.63
1562.10
1585.21
1557.24
1498.22
1273.93
1151.61
1170.69
1179.60
1184.50
874.74
781.66
1399.58
1289.40
1356.00
963.29
1384.01
1201.34
1454.92
1423.52
1764.64
1012.70
826.73
1027.01
508.48
447.07
621.04
533.16
1112.68
1151.33
1346.08
1393.99
1406.95
1344.28
1349.20
1239.56
1323.75
1184.29
715.41
687.72
1016.17
1246.59
1525.14
767.08
736.11
1371.08
1602.84
1258.52
1293.10
1268.96
1594.17
1374.12
1572.96
1554.55
1382.89
874.59
905.62
624.17
590.36
770.30
1034.42
605.45
1312.68
1323.15
1564.51
1261.85
1344.92
1573.17
1510.59
1475.33
1680.17
1329.30
1174.47
983.51
670.78
1105.65
1174.54
1115.87
1344.80
1383.22
1386.78
1173.96
1292.89
1421.83
1338.38
1430.20
1848.88
1357.97
557.81
709.86
524.94
426.99
505.62
523.35
538.82
1128.25
1382.22
2330.17
1087.23
1207.67
1419.58
1284.63
1424.27
1399.45
1283.25
832.52
874.90
705.67
788.85
1005.12
980.54
917.95
1501.03
1797.03
1398.71
1056.13
1902.98
1839.64
1564.03
1393.60
1751.42
666.27
544.18
422.92
827.79
627.84
466.88
817.63
1277.74
1171.40
1429.37
1023.56
1526.77
1250.91
1541.33
1421.94
1739.77
1804.13
1202.08
1056.61
1187.50
1193.24
2009.71
2099.82
1759.09
1575.98
1345.51
1293.61
1114.23
1429.28
1061.20
1306.77
1387.86
1239.39
1258.51
562.34
660.96
879.42
735.34
616.61
762.05
1131.31
1533.71
1441.95
1305.42
1233.60
1418.83
1431.80
1233.18
1233.49
1467.97
712.79
493.23
531.88
885.06
959.16
1293.34
1044.05
1606.03
1503.73
1295.88
1145.29
1179.17
1669.47
1535.10
1308.29
1553.89
1714.40
550.55
671.64
1049.28
1212.79
1509.54
1374.68
989.72
1523.62
1641.83
1541.84
1457.76
1201.32
1288.41
1453.22
1335.49
1409.26
1256.43
501.68
644.50
621.23
833.50
1369.17
608.69
732.53
1743.25
2243.71
2397.30
2123.45
1882.48
1440.26
1359.09
1364.93
3456.75
1951.04
2095.71
1499.87
790.86
690.85
683.10
970.60
1115.49
1366.06
1190.39
1402.55
1377.80
1376.30
1353.73
1334.93
1523.24
1300.63
1270.81
1008.36
650.20
813.31
592.82
700.58
755.74
1754.78
1586.61
1406.76
1007.81
1329.37
1390.06
1488.70
1222.35
1309.44
1312.63
650.24
556.23
451.44
530.79
577.77
556.24
535.90
1312.97
1266.96
1147.10
1069.24
1305.40
1453.96
1229.25
1374.83
1490.01
901.04
721.40
611.21
761.38
765.26
1031.09
1085.61
1580.07
1686.96
1533.22
1118.35
1050.31
1467.20
1435.51
1810.32
2322.10
1972.68
1694.94
973.88
826.76
895.00
752.72
615.98
630.65
1182.82
1322.95
1518.27
1236.77
3740.39
1378.32
1265.81
1171.76
1408.64
1319.40
515.89
494.04
551.49
637.19
580.77
909.99
765.08
1494.38
1139.58
1334.12
1028.38
1243.22
1414.83
1584.29
1248.01
1467.57
800.47
1314.64
754.51
500.13
682.57
896.65
768.82
1177.34
1124.54
1324.07
1073.85
1287.49
1123.40
1470.98
1278.97
1444.56
1483.88
958.12
944.85
1085.34
897.66
1082.63
716.04
1001.94
1677.28
1679.28
1435.53
1288.35
1259.81
1563.32
1319.38
1430.89
1274.21
1209.81
532.04
667.73
591.95
587.46
653.39
838.34
997.14
1515.65
1291.83
1393.53
997.39
1363.66
1408.82
1449.27
1107.59
1386.23
997.28
1623.45
2395.53
2786.51
2693.43
2350.77
1320.06
1621.97
1279.00
1634.19
2127.72
2017.74
1629.99
1465.67
1508.36
1850.10
1836.26
1007.31
1176.52
866.83
605.94
642.38
601.35
819.46
1536.13
1544.49
1466.55
1244.99
1309.86
1590.09
1242.19
1452.25
1344.91
1237.15
904.99
1026.37
1179.44
995.25
1357.65
1247.83
1643.26
1902.48
1335.27
1262.59
1095.37
1221.79
1286.39
1241.74
1299.47
1247.70
756.04
1298.00
436.38
698.81
541.63
497.04
647.00
1253.98
1339.66
1179.45
1431.99
1473.43
1833.11
1674.48
1617.09
1653.31
1315.35
491.77
1037.79
825.40
922.20
966.76
847.75
1600.42
1396.76
1235.23
1428.43
1040.69
1023.25
1342.38
1328.98
1373.94
1231.01
1208.81
1951.44
962.92
1049.03
1145.38
662.27
944.90
1136.96
1381.73
1123.10
1224.04
1118.25
3111.82
1280.58
1418.07
1601.40
1474.74
679.02
661.86
1197.10
2226.10
2313.54
2171.00
3007.76
1289.76
1137.13
1237.34
1401.06
1205.80
1240.47
1307.80
1621.92
1777.41
1522.50
3042.00
1061.88
654.40
464.59
679.49
509.46
522.87
1462.12
1399.28
1371.35
1207.34
4006.47
1313.60
1136.44
1233.51
1497.01
1288.63
1060.53
945.23
866.14
938.74
585.55
1284.67
772.65
1310.30
1366.04
1957.04
1950.72
1845.88
1680.34
1469.84
1243.27
1336.37
844.99
680.50
1207.99
1605.67
2595.96
3345.70
3003.01
2156.01
1387.07
1436.41
2329.79
3099.49
3063.61
2341.67
1453.95
1348.21
1342.77
520.79
643.97
725.06
470.70
543.37
414.23
781.05
1614.78
1500.93
1753.30
1389.03
1417.36
1703.99
1796.13
2542.55
2571.94
1505.32
1004.29
628.97
976.17
1182.48
1178.27
936.01
986.12
1343.41
1697.81
1408.08
1140.13
1610.40
1480.94
2076.93
2280.21
2500.37
2404.82
1633.56
825.05
588.10
924.33
744.77
1121.93
1302.71
1108.40
1372.74
1615.64
2199.46
2286.64
1970.61
1395.97
1420.33
1366.46
1162.80
772.59
1341.84
1741.22
571.77
1200.83
1790.75
2907.29
2807.42
2057.89
1238.62
1519.97
1369.24
1543.58
1704.08
1472.63
1277.34
503.25
621.86
681.15
570.55
877.13
1483.87
1198.06
1586.78
1620.50
1413.89
1070.83
1486.71
1106.50
1338.26
1104.71
1393.84
1338.86
649.22
673.79
412.96
599.20
773.09
815.60
1234.64
1324.89
1136.46
1088.41
2150.49
1307.83
1641.45
1514.33
1603.76
1416.98
992.27
844.19
832.99
1195.01
1925.08
2877.91
2711.78
3174.33
2673.08
1856.58
1014.38
1212.06
1618.35
1354.42
1383.61
1294.26
3815.94
1701.92
1068.84
684.61
719.19
739.49
732.06
1018.83
1156.43
1144.22
1256.36
3001.59
1267.80
1292.35
1318.32
1232.85
1443.87
1029.63
945.83
773.05
675.96
623.73
3206.93
792.59
1627.63
1646.25
1864.83
1117.75
1229.64
1221.46
1397.68
1375.40
1981.34
2157.89
1374.07
1211.04
1385.69
1523.91
751.94
572.37
684.03
1834.14
2047.55
1422.26
1373.07
1104.97
1268.85
1295.12
1515.69
1256.45
1351.80
1088.37
1364.97
1778.94
1163.39
698.70
623.99
800.23
1492.49
1373.89
1586.70
1205.37
1598.49
2606.21
3919.73
3952.20
3822.47
3887.09
3084.49
691.40
3804.10
3930.11
4017.64
3875.79
3842.53
3839.44
2224.15
1292.55
1161.82
1407.06
1255.27
1366.98
1716.92
1429.29
1014.18
885.64
1024.56
800.85
771.07
1028.09
1042.77
1982.45
1668.19
1493.54
1307.89
1416.11
1494.56
1166.07
1363.46
1213.14
1427.05
817.69
555.80
922.78
878.05
597.68
700.19
883.56
1169.76
1279.44
1336.99
1371.97
1564.84
1256.75
1610.74
1281.43
1298.09
811.32
747.46
849.35
1067.79
936.68
1194.10
1004.33
1564.28
1365.46
1635.03
1201.33
954.67
1143.75
1329.95
1303.97
1499.79
1515.99
724.62
476.91
677.05
717.58
1062.25
1033.91
711.73
1094.46
1225.53
1356.17
3157.03
1164.66
1242.86
1347.90
1244.73
1352.26
1285.60
576.57
440.89
661.93
581.56
3091.12
1075.56
1027.91
1554.12
1940.09
2155.29
1810.07
1927.66
2301.19
3333.41
3935.34
3806.90
3838.72
1318.99
2728.62
3898.76
3810.10
3830.34
2686.13
1750.62
1322.36
1354.78
1130.38
1255.86
1460.80
2179.95
2120.46
1680.72
1634.46
1074.92
851.29
632.06
722.68
416.92
837.04
804.88
1235.50
1174.64
1178.18
999.01
1508.89
1658.65
1529.26
1182.74
1221.95
1108.27
508.48
494.09
857.56
824.35
597.63
565.52
822.81
1150.32
1351.62
1755.47
2797.22
3911.72
3892.15
3160.04
1639.86
1931.42
3406.33
3475.92
1781.20
1040.34
2225.38
2336.95
827.52
1060.60
1324.89
1283.41
1254.62
1195.11
2670.91
3937.59
4008.57
3882.06
3928.47
2341.63
1331.05
3954.91
3953.07
3922.45
3849.88
3954.55
3974.17
2405.37
1300.94
2545.14
1309.01
1620.30
1995.29
1817.51
1377.11
1032.71
787.38
764.72
704.26
549.72
2471.33
529.11
890.00
1516.01
1818.70
1823.99
1548.07
1521.54
1388.23
1673.94
1280.89
3877.66
762.58
652.80
516.01
584.00
490.30
908.54
801.70
1252.74
1170.01
1326.64
3533.94
1354.71
1609.34
1558.63
1057.12
1247.75
1251.70
623.67
1183.90
2338.71
3830.94
3868.38
3888.91
3913.16
1988.90
1312.27
1472.06
2513.19
2368.91
2847.08
2707.91
2163.46
2161.12
1222.54
1028.12
1463.62
1307.95
889.83
824.20
887.06
792.91
1455.70
1362.73
1255.93
910.62
1305.68
1481.90
1496.27
1423.90
1488.61
870.59
1047.44
1732.39
2322.35
3105.05
3471.21
2016.65
1323.85
1240.03
1501.22
1853.07
1235.52
1279.94
1502.27
1571.43
1650.17
1391.51
726.30
978.50
1361.15
1351.79
867.52
539.80
680.12
1448.58
1301.47
1190.55
1195.66
1280.17
1396.81
1482.42
1582.65
1333.58
1173.27
1035.50
1075.50
1034.45
649.20
743.00
812.38
1027.85
1945.90
2185.30
2556.77
2258.66
2294.68
1701.78
1378.18
1298.53
1585.26
1106.02
664.25
392.70
687.77
1266.08
2523.52
3815.51
3924.56
3757.79
1700.19
1561.25
3180.90
3860.44
3809.58
3927.94
3654.72
2268.19
1362.46
696.75
530.97
1332.83
1656.19
1836.54
1546.72
1926.53
1758.60
2043.39
1626.60
1344.18
1614.62
1366.02
1377.91
1282.99
1079.46
947.52
1306.91
974.37
792.09
503.63
946.42
917.00
1330.41
1170.83
1477.34
2037.20
2589.73
2480.04
2185.28
1875.62
1989.25
1586.88
998.27
795.66
593.45
979.76
603.66
639.57
1130.90
970.49
1331.49
1315.99
1479.37
1844.71
1532.22
1299.71
1829.46
1376.83
594.31
470.69
374.56
774.07
633.88
694.35
540.00
1236.62
1486.51
1604.27
1128.41
1279.75
1648.63
1266.63
1241.41
1599.36
1905.27
1921.76
1327.18
670.52
957.33
718.76
723.53
824.68
1183.42
1193.87
1489.83
1369.91
2193.20
2431.85
1851.42
1475.85
1388.28
664.78
484.50
564.59
1194.45
2005.31
2677.29
2299.48
1663.86
1084.15
1805.28
1049.70
1435.59
1862.16
2211.06
2943.35
2521.23
2121.82
2006.07
1084.46
694.36
1521.86
1106.64
1167.65
1226.33
1938.52
1490.32
1313.80
1048.75
1094.47
1411.68
1704.49
2359.14
1334.23
1297.95
417.46
785.00
671.32
625.22
844.01
835.88
1248.72
1333.62
2222.83
1268.57
1211.89
1375.02
1232.46
1250.48
1323.88
1281.25
748.30
765.57
1188.01
2387.71
1141.33
1096.54
959.33
1502.29
1048.66
1377.92
985.63
1259.63
1277.33
1249.30
2839.21
2171.24
2039.44
1971.02
2085.28
1585.89
898.15
643.60
1012.19
2128.72
3688.03
3841.56
3853.19
1891.15
1138.39
2409.84
3785.75
3910.53
3903.73
3912.03
1799.71
1524.61
3882.07
3954.76
3204.41
1647.15
914.32
1444.32
1378.89
1243.96
1084.52
1337.48
1408.37
3653.68
1692.69
2305.98
2918.51
3891.63
3901.44
3923.56
3840.38
2010.89
677.18
2148.63
3986.88
3847.75
2295.48
1236.07
2124.56
3290.62
2169.18
1280.13
3213.19
3825.58
3877.10
3853.64
3672.84
2185.27
544.78
893.67
1986.71
1846.15
2114.13
1647.90
1693.54
1559.97
1541.52
1613.35
1496.11
1002.69
586.70
842.72
737.96
629.76
622.58
567.52
1077.03
1238.71
1362.19
1321.76
1286.69
1329.72
1549.88
1623.47
1471.01
1509.02
761.70
574.87
861.96
817.66
839.12
1010.33
1463.49
2592.81
2586.40
1992.91
1144.30
1028.13
1405.41
1204.05
1353.02
1100.70
1199.74
614.83
643.55
970.37
731.00
724.53
726.15
541.19
1277.18
1674.05
1732.54
1416.28
1204.37
1243.78
1385.42
1224.71
1370.15
890.89
855.12
1817.91
2620.96
2914.02
3030.76
1525.55
1210.05
2330.13
2457.90
2309.97
1332.82
1236.03
1177.55
1611.16
1247.48
1449.15
888.38
1254.08
2122.99
2805.44
2370.81
1758.46
697.49
2262.32
3683.10
3871.96
3214.44
2183.84
1276.55
1238.83
1525.93
1573.85
1302.75
634.45
624.60
734.50
1350.90
2232.66
3984.14
3898.44
3923.27
3764.57
1746.63
1305.26
2848.99
3515.83
3859.25
3243.63
1648.07
1091.01
906.76
1801.94
2102.82
1610.38
1130.20
783.94
1863.30
2305.88
1065.17
1240.36
1139.53
1340.51
1311.95
1436.33
1309.80
1493.50
830.90
1489.99
1631.44
737.01
957.96
1435.74
2542.68
2827.07
2686.06
2361.02
1563.70
1334.76
2205.51
3292.41
2721.77
2387.47
1877.80
1209.67
571.47
823.83
713.41
655.36
596.90
905.92
1749.40
1307.52
1466.83
1723.50
2413.59
2678.63
2361.11
2126.56
1740.42
1221.68
940.90
1349.14
1352.75
1282.35
1253.63
690.55
1757.82
2378.32
2738.99
2473.80
1338.61
1374.80
2185.54
1600.09
1472.01
1257.64
777.62
839.19
1033.31
693.05
803.97
536.12
514.03
2143.90
1028.11
1324.08
1120.69
1182.67
1288.72
1779.88
2927.09
3927.92
3425.36
1897.50
1625.10
740.37
1285.73
1823.56
1252.08
531.97
1378.29
1431.90
1272.60
1186.10
1065.88
2697.13
1210.52
1495.48
1223.85
1203.92
1114.11
1792.73
2916.99
3158.28
1838.19
1106.64
3498.72
2743.78
3583.79
3569.98
3837.05
3753.13
1871.68
1306.78
1334.60
1731.83
1538.13
2931.80
1273.97
1368.55
1226.26
1260.42
2370.18
3906.04
3876.60
3771.47
1326.86
1394.62
3844.17
2232.07
2510.22
2500.09
2017.98
1140.89
721.03
593.53
809.33
726.83
792.72
2814.80
1310.98
1675.84
1408.23
1253.05
1246.54
1567.70
1421.14
1581.11
1324.07
1128.56
1436.11
1708.07
1820.84
1603.10
1001.47
858.40
1309.66
2052.37
2198.44
1957.96
1496.81
1812.01
1357.18
1533.74
2081.76
1516.24
1633.35
1589.68
1455.37
974.90
443.40
605.45
851.02
1534.32
1593.90
1803.91
1511.16
1524.31
2125.54
2212.39
1925.15
1768.39
1410.81
1421.98
2583.25
2165.49
1418.81
798.98
730.29
799.93
1322.86
1298.09
1468.46
1267.91
1572.83
1628.17
1408.95
1451.43
1256.93
1089.24
467.77
506.43
585.57
550.75
601.86
653.77
944.42
1330.47
1173.84
1070.37
1387.30
1260.83
1396.35
1511.21
1279.47
1232.05
659.06
538.63
407.67
784.61
888.56
754.47
635.21
1314.25
1585.62
1970.97
1959.59
2094.75
1813.21
1658.17
1602.70
2428.82
3431.69
3936.78
3937.13
1350.81
1186.45
2725.84
3870.06
3877.95
3973.31
3040.76
2162.51
1338.52
1120.36
1343.72
1363.00
1334.65
1576.12
1177.54
635.09
663.30
664.61
719.57
805.17
1013.64
1339.21
1807.24
1692.61
1943.79
1490.62
1693.03
1568.31
1468.76
1342.50
1520.83
1343.61
913.20
781.47
813.66
488.22
1265.96
1892.99
1745.97
1483.83
1438.56
1514.39
1745.22
1435.20
1622.63
1618.04
1663.36
1508.77
1380.28
1118.52
910.55
878.05
667.95
630.42
778.87
1411.45
1524.01
1798.33
953.37
1455.14
1500.86
1475.37
1828.38
2086.39
1876.36
1351.26
887.42
827.63
1274.41
1330.02
1386.18
1088.78
1602.29
1796.38
1883.30
1226.63
1322.35
1257.84
1365.74
1726.70
1885.82
1775.61
1040.85
1371.26
1557.59
989.22
668.83
734.09
1120.24
1388.04
1824.95
1900.26
1895.01
1337.74
1293.97
1557.64
1565.31
1385.23
700.65
736.13
775.46
1146.19
919.23
1668.27
725.81
1240.41
989.92
1191.48
1185.39
1324.80
1272.91
1612.62
1521.07
1747.62
2008.14
1419.21
1101.73
734.94
409.50
581.35
915.24
1158.81
1508.14
1057.22
2246.27
3392.54
1344.81
1401.64
1363.53
1357.79
1414.00
717.47
640.14
698.11
473.66
581.46
2054.11
1417.23
1658.32
1673.17
1811.12
1799.81
1360.73
1174.50
1776.01
2365.01
1705.75
3316.30
688.94
600.79
807.38
1181.46
1361.41
1311.73
857.89
1138.29
1315.18
1105.68
3307.86
1468.63
1634.84
1453.10
1925.80
2078.39
2001.70
1580.38
1015.55
775.76
1425.11
3887.61
1975.66
2113.92
1473.87
1306.45
1249.49
1386.19
1458.83
1554.64
1526.95
1429.31
3251.16
1206.09
1263.14
581.17
608.16
724.06
589.54
769.37
1284.49
1485.39
1376.69
1221.42
1302.77
1253.65
1553.56
1419.92
1402.22
1485.89
732.72
572.70
1238.29
1503.56
796.96
627.98
699.29
1168.73
1626.05
1347.19
1322.32
1231.14
1407.42
1239.16
1462.24
1708.14
1792.80
1576.25
1408.58
1467.24
1791.08
2578.25
2762.13
2624.78
2415.75
1720.79
1372.30
1655.71
1695.23
1786.60
2117.14
1541.09
1229.73
627.79
504.18
706.93
918.86
993.48
657.91
1283.33
2343.05
2446.86
2652.74
2033.80
1626.06
1300.21
1613.24
1507.91
1728.73
1631.22
833.15
1064.07
1759.25
2148.74
2454.40
1593.55
1285.21
1442.72
1203.15
1860.70
1568.65
1178.74
1170.30
1352.57
1446.73
1375.43
976.03
892.44
973.12
810.28
852.82
1114.94
564.98
1108.83
1467.63
1395.52
1402.78
1183.61
1524.81
1516.23
1487.38
1559.92
1458.25
1105.69
1356.64
1087.90
1347.80
1820.89
1833.36
2100.75
2564.32
1740.50
1277.67
1638.60
1920.38
1864.13
1485.08
1600.92
1422.64
1324.16
701.50
657.46
363.01
393.01
694.21
547.79
627.06
1233.45
1307.97
1339.62
1293.78
1402.34
1396.50
1270.32
1553.11
2503.11
2993.68
3294.50
3089.20
2164.47
957.53
2007.30
2991.09
1946.70
1698.76
1339.63
2097.49
1071.83
1325.47
1150.06
1246.33
1188.61
1344.00
621.07
1169.11
1731.39
2161.91
2436.02
1609.20
1017.27
1279.30
1435.82
1348.97
1460.34
1462.73
1207.55
1232.95
1391.05
1718.83
1324.58
780.89
554.78
669.88
709.87
410.15
776.62
1130.71
1576.40
1332.27
2375.46
3085.42
2396.97
1964.68
1589.24
1319.89
1393.98
1267.67
1354.58
1748.37
2424.89
1766.18
590.46
1065.14
2027.59
2475.04
2131.86
1365.08
1691.90
2254.62
2728.44
2055.84
2226.08
1402.69
1337.30
1739.11
1774.06
1615.11
1119.76
776.03
606.32
1341.76
1559.18
2014.49
1552.48
2657.75
3081.30
2933.32
2256.38
1693.28
1399.36
2071.60
2706.40
3145.48
3558.94
1291.95
641.59
809.00
1411.93
1248.79
1348.37
1112.13
1195.73
1373.01
1498.18
3090.71
1270.72
1017.19
996.62
1321.03
906.28
811.20
622.96
496.87
993.53
1407.55
2889.79
1646.59
1269.67
1427.19
1164.06
1302.58
2058.49
3227.34
3473.30
1772.42
661.72
3953.85
2235.20
1821.21
700.85
1262.41
1307.06
1153.43
1312.65
1878.80
1434.46
1328.14
3241.45
3261.81
3760.96
3353.16
1997.80
864.55
1299.62
2156.45
2452.76
2081.25
1497.66
3064.48
1670.24
1230.45
1522.05
1729.23
1499.81
1498.73
1633.98
1276.36
668.44
591.62
850.44
1108.71
1163.45
1434.66
1227.26
1140.00
1278.14
1514.92
1909.25
1826.33
1725.06
1414.79
1380.08
1318.09
1348.26
886.11
698.85
1170.21
1269.19
1629.92
1227.89
1396.66
1176.14
1117.09
1133.90
1165.72
1385.55
1409.31
1572.90
1372.67
1271.94
570.48
803.05
1248.79
1232.16
975.46
1385.31
1666.64
1728.27
1837.45
1854.46
1585.51
1426.34
1387.47
1656.02
2224.73
2654.38
2428.62
1475.34
591.86
727.90
1368.70
1693.57
1640.07
1919.52
2430.11
2223.76
1689.56
1362.11
1448.51
1630.69
1669.35
1685.43
1967.02
1944.97
1759.01
800.72
590.84
632.29
525.44
914.41
1351.04
1290.19
1326.10
1257.98
1261.04
1333.04
1537.99
1907.47
2257.22
2643.87
2312.68
1664.11
1106.78
744.63
1274.18
1726.48
950.53
1452.65
1735.36
2024.64
1929.52
1577.44
1308.07
1321.29
1646.91
1296.93
979.06
820.10
1201.94
1320.57
872.07
544.95
633.73
820.00
1448.29
1347.63
1331.13
1240.15
1517.62
1314.76
1543.34
1337.92
1575.96
632.15
584.86
378.38
598.02
898.76
1271.46
849.51
1246.06
1545.71
1623.52
1726.53
2223.99
1943.47
1604.30
1564.47
1516.98
1630.84
905.54
555.55
989.88
1105.94
1541.13
1574.00
774.41
1254.76
1605.43
1135.79
1095.98
1257.29
1571.14
1918.69
1515.94
1514.00
1026.38
797.97
1000.12
769.70
768.84
959.60
1404.37
1983.36
2568.44
2590.40
2272.89
1446.17
1471.92
1610.65
1409.91
1468.62
1587.14
836.10
626.84
1609.14
1527.93
1011.87
500.78
643.70
1680.20
2022.84
1520.21
1289.35
1349.96
1596.86
3101.18
3806.53
3925.42
2450.75
753.49
2026.68
2021.97
1672.68
1145.51
614.04
1027.91
2657.67
2073.30
1340.99
1013.33
1386.63
1436.65
1300.99
1313.78
1265.23
886.76
763.27
1579.76
898.69
826.87
619.51
661.10
1133.59
1173.97
1264.31
1096.42
1259.74
1382.50
2338.21
1275.01
1253.50
1604.46
1338.21
1211.94
961.86
538.80
560.67
801.08
753.26
2636.85
2737.16
2938.83
2197.39
1667.30
1153.26
1300.59
1485.52
1124.14
1350.73
721.16
3493.59
746.05
777.97
1489.52
1361.74
1069.75
1157.12
1290.42
1257.65
1020.86
1296.76
3360.82
1290.14
1310.79
1503.56
1383.10
1273.30
902.52
868.90
1522.07
1560.14
1885.29
3181.31
3491.99
3020.82
1662.92
852.16
1368.13
2372.94
1972.47
1322.17
1453.77
680.99
2414.52
410.92
464.83
592.18
1176.96
1947.77
3040.49
2586.82
2361.20
1730.14
1239.21
1145.68
1491.13
1855.31
1786.10
1904.54
1128.70
968.10
1182.92
1400.75
1451.10
1213.96
804.94
1701.09
1697.01
1717.43
1018.57
1362.10
1501.24
1369.02
1239.88
1586.24
1222.38
561.00
443.95
501.64
666.49
561.10
740.95
1174.61
1570.03
1285.05
1363.71
1101.18
1434.79
1267.90
1484.84
1236.31
1353.19
672.01
679.44
995.99
932.09
1196.26
962.59
1059.74
1864.02
1602.37
1486.28
1126.98
1341.54
2620.15
3768.20
3891.71
3901.48
3907.81
3960.39
914.21
3882.90
3968.20
3832.36
3930.42
3987.40
3871.47
3875.17
3418.50
1553.14
1249.84
1447.21
1354.16
1411.65
1397.34
1282.71
1155.83
1239.86
1196.66
1247.92
1295.67
1579.47
1870.10
2046.79
1738.43
1458.70
1399.26
1606.20
1430.78
1491.28
1576.99
1500.97
830.29
667.91
390.51
886.75
998.98
1002.86
888.00
1500.63
1730.28
1786.87
1270.00
1554.96
1955.65
1882.93
1498.04
1405.89
1406.02
727.78
535.98
706.05
1137.07
588.40
748.34
965.97
1375.76
1571.20
1518.58
1743.36
1867.93
1523.92
1466.02
1358.77
1427.89
874.12
696.54
982.66
669.59
689.44
537.16
912.34
1423.63
1548.06
1298.83
1360.35
1174.78
1759.55
1343.29
1361.23
1329.28
1214.19
827.93
1476.55
1672.09
2125.38
1504.37
801.93
997.14
1253.66
1350.74
1305.71
996.64
1147.77
1337.17
1284.76
1362.52
1289.89
1267.96
1718.77
1223.41
603.76
508.43
807.59
685.01
602.41
1505.95
1658.25
2551.96
3249.59
3385.33
2893.89
1899.07
1403.57
2529.25
3306.55
2083.31
711.90
948.30
1335.09
1336.61
1387.09
1139.38
1267.05
1259.36
1110.01
1298.16
1451.78
1642.17
1427.14
1300.12
1484.12
1266.05
698.94
384.59
634.03
654.00
898.47
658.38
1224.67
1510.26
1334.95
987.35
1919.98
1214.99
1260.05
1202.83
1573.37
1558.38
1329.14
1193.77
1851.78
2355.91
2080.65
2193.70
1025.17
1322.10
1200.78
1190.90
1026.55
1286.62
1219.48
1213.88
1288.83
1471.07
2574.46
2201.11
2195.80
2313.13
2029.39
1133.96
719.42
1381.96
2156.04
1990.37
1648.52
2953.16
1227.58
1237.77
1203.12
1531.19
1338.26
579.20
844.14
878.78
1102.42
1142.25
2813.68
1327.66
1788.47
1906.75
1985.45
1534.37
1360.60
1155.20
1702.24
1596.27
1504.84
3864.49
733.30
675.59
381.58
558.28
786.11
654.80
1107.75
1570.54
1794.94
1327.37
2516.36
1377.65
1555.15
1292.35
1509.87
1696.50
1797.62
1600.72
1971.19
1749.04
1171.03
602.09
1086.60
1486.36
1225.59
1174.12
1146.25
1089.08
1370.61
1742.95
2019.52
1957.80
1573.72
472.47
1667.59
1754.21
1343.60
1033.82
564.25
583.70
1222.72
1155.94
1212.78
1029.42
1094.38
1141.88
1403.60
1226.00
1364.13
1416.87
1342.91
1360.08
1395.61
945.46
1001.00
1101.86
809.48
1414.66
1718.43
1758.27
1352.29
1297.46
1653.54
1592.79
1569.46
1701.02
1078.05
755.06
630.54
583.14
504.98
1266.45
1504.20
1232.89
1317.48
1094.70
1303.08
1602.44
1632.95
1452.91
1531.43
1669.56
1584.51
754.87
983.33
1601.06
1708.44
1234.35
615.03
564.05
1406.60
1611.81
2401.98
2087.37
1546.26
1370.38
1376.79
1746.53
2178.50
2030.36
1100.49
376.18
711.76
981.20
1321.13
671.67
669.91
1080.96
1192.62
1388.13
1624.10
1225.34
1303.01
1161.94
1419.29
1244.74
838.70
803.57
624.17
418.64
626.56
1022.51
730.03
1057.08
1445.42
1331.49
1325.92
1503.52
1466.06
1791.36
2879.68
3832.84
2825.98
844.55
1210.44
1915.10
1894.55
1409.65
601.74
1214.99
2194.12
2530.25
2464.05
2283.75
962.86
1075.49
2401.65
1997.37
1657.51
1184.53
630.26
547.78
1627.53
2385.27
2242.77
952.84
819.72
1093.10
1303.95
1474.96
2202.56
3241.04
2898.24
2945.82
3099.25
3317.87
2098.71
1033.98
554.34
1633.79
2067.56
2845.53
3052.05
2967.81
2428.76
1529.78
1842.78
1096.17
1428.93
1386.24
1493.84
1770.17
2048.70
1346.38
834.38
745.40
1088.52
1533.71
420.64
531.95
1694.66
1736.61
1526.55
1409.33
1685.76
1691.94
1549.24
1102.56
2010.51
1287.92
594.86
1604.20
2337.44
1642.56
637.40
1655.06
2665.24
3733.97
3167.47
3095.71
1373.14
1074.39
2093.57
2433.19
2044.64
1824.45
2096.61
2158.59
1473.73
857.70
1708.62
709.24
986.51
869.03
1227.72
1277.90
1189.86
1106.52
1886.53
1882.86
2124.84
2847.82
2178.13
1234.90
440.77
1459.58
2717.60
2625.02
2045.37
1476.86
1643.94
1224.21
3037.17
1260.90
1373.92
1473.24
1715.32
1376.62
1305.43
1296.04
1100.95
1056.64
1336.54
2520.13
2297.28
2147.93
1336.63
1539.73
1583.35
1518.32
1086.01
1140.26
1412.37
1160.62
3251.87
1590.39
994.95
553.27
486.38
492.11
572.08
542.80
639.96
1018.27
1292.95
3792.38
1269.47
1023.97
1214.85
1126.55
1232.13
1414.28
1496.33
1314.32
1664.12
1376.98
2304.87
971.25
594.13
571.27
1241.48
1136.71
1310.79
2393.10
3894.28
3781.82
3973.03
2363.93
1327.73
2568.73
3917.65
3822.51
2743.86
1127.17
817.44
1239.97
977.21
1388.53
1115.54
1383.31
1716.85
1624.14
1193.67
1716.39
1641.16
1207.94
864.64
1301.94
2026.27
2358.16
2118.83
1795.82
989.24
1097.85
1280.16
1113.07
1572.43
2112.23
2184.13
1666.79
1501.49
1742.76
1554.41
1096.22
1198.12
1353.83
635.03
484.26
1195.93
909.56
1295.06
1096.95
1471.05
1068.37
1160.21
1395.47
1521.97
1318.76
1020.03
1242.59
649.46
732.90
1262.56
1816.21
1975.57
1446.07
1487.79
1558.07
1424.08
1289.46
1457.28
1885.43
2596.24
3530.84
3746.30
3384.74
1924.10
1130.79
2551.45
2978.46
3010.07
2429.39
1892.73
1314.69
1437.42
1366.24
1649.75
1151.31
1613.06
2131.34
3061.59
3905.96
3903.39
3552.67
1601.10
443.31
847.99
518.97
1031.06
1330.60
2067.31
1465.01
1130.74
1767.61
2756.48
3038.29
2592.27
2496.15
1548.47
1300.17
503.36
518.80
483.74
656.14
1297.11
1366.35
775.54
1051.98
1330.96
1291.64
1252.73
1110.76
1558.19
1594.51
1862.72
1886.22
1495.90
1150.00
494.19
1041.93
1404.69
672.68
696.86
1794.79
2143.64
1436.74
1184.34
1061.95
1449.64
1657.92
2522.30
2075.89
1379.99
731.87
475.99
472.80
596.63
582.35
657.03
649.14
1299.90
1504.33
1216.42
882.29
1247.37
1249.34
1302.80
1445.80
1769.43
1594.70
1024.09
874.63
1315.37
573.36
857.33
986.90
1168.52
1656.31
1858.44
1512.33
1216.32
1295.54
1775.59
2541.86
2479.80
2315.71
1470.45
586.65
1935.91
2476.31
2662.81
2622.88
2051.08
1876.31
1828.57
1260.20
1505.99
2511.83
3853.71
3737.47
2026.45
1347.95
1920.20
1942.00
1406.15
1426.91
740.37
1076.11
806.34
682.82
1670.78
1369.77
1702.13
1490.96
1464.18
1443.19
2545.40
1969.59
1448.28
1278.76
1319.80
776.85
704.95
1168.85
1723.41
1789.59
1408.22
2339.56
1349.10
1210.01
1235.36
1245.71
1300.78
1324.75
1906.30
1954.41
873.25
648.32
1786.49
562.16
582.67
882.80
1150.69
1466.33
1639.76
1918.01
1695.95
1411.29
1443.42
2832.75
1477.24
1680.56
1717.43
1059.74
1285.57
1074.29
552.36
806.12
1301.05
1290.33
3903.05
1387.58
1368.54
1077.08
1204.45
1255.68
1415.56
1571.74
2204.20
2700.18
3138.11
3649.16
1353.72
852.44
447.98
1021.51
1107.68
1173.61
1264.03
1145.42
984.39
1146.25
2534.02
1234.51
1458.88
1291.04
1408.76
1726.41
1244.93
650.79
848.79
1157.43
1318.65
1127.69
1460.99
1411.16
1295.11
1394.51
1557.26
1598.90
1747.55
1584.69
1570.94
771.48
536.10
832.68
1025.45
1129.96
1356.32
1035.22
1780.19
2426.42
2639.74
1952.58
2117.48
1766.97
1693.66
1360.88
1307.33
1414.60
554.45
433.82
660.81
846.66
1039.90
1050.61
756.29
1668.44
1655.56
1861.20
1422.59
1234.48
1299.72
1543.26
1583.33
1232.16
810.61
621.86
387.03
889.87
747.93
867.67
1368.24
1844.50
1965.53
1598.52
1694.22
1300.90
1383.07
1421.91
1632.18
1675.23
1824.09
1149.21
993.16
672.41
501.60
395.29
1078.61
906.12
1357.83
1302.47
1164.95
1089.23
1717.96
1928.24
1386.53
1216.92
1591.45
2054.11
1748.37
1377.18
1069.48
1393.34
1305.32
615.74
1381.15
1334.82
1402.51
1269.99
1309.41
1192.38
1409.84
1444.56
1647.11
1511.42
985.94
592.22
465.35
591.01
700.38
803.73
1010.46
1382.46
1187.44
1122.32
1262.13
1476.32
1546.49
1446.71
1412.19
1498.04
1733.18
1241.03
1653.52
1471.70
1109.88
490.99
793.91
868.29
1705.13
1725.33
1449.89
1030.94
936.83
1305.41
1151.96
1303.39
1278.43
1302.52
501.56
681.04
656.40
809.52
1396.82
1376.14
1471.68
1381.56
1650.39
1657.20
1380.48
1401.89
1311.08
1463.71
1559.93
1917.02
1645.95
1683.29
1004.55
848.50
771.18
679.98
1094.62
1182.63
1367.69
1578.00
1333.35
1144.77
1852.27
1432.16
1377.74
1363.80
1413.52
533.10
510.19
718.46
898.01
626.92
670.00
984.03
1106.25
1273.96
1272.40
992.26
1027.77
1396.96
1229.74
1425.80
1727.97
1768.21
1675.36
1062.40
815.74
1048.23
1758.84
1747.07
2065.65
2481.11
2002.23
1386.44
943.26
1764.60
1161.87
1260.47
1330.62
1140.69
1167.52
984.76
1172.22
1362.33
1196.31
1062.80
1825.07
976.01
1287.88
1384.60
1338.59
1504.18
1347.44
1423.79
1413.21
1416.28
1194.10
1936.58
419.84
868.55
1541.19
2080.47
1275.19
783.95
1260.93
1340.08
1118.41
1099.96
2333.54
1557.85
1902.11
2225.36
3056.91
3056.66
1840.73
731.93
2959.28
3513.55
3423.29
3861.15
2943.96
2246.54
1183.12
1219.54
1063.47
1288.49
1499.08
1516.22
1361.00
1532.45
3125.91
1517.50
1897.12
1457.20
1279.38
1445.72
1341.80
1894.69
2356.27
3120.98
2915.70
3907.21
1350.56
1226.73
1319.65
1149.16
1460.44
737.70
463.78
673.90
582.88
835.67
1519.68
711.47
1196.34
1480.25
1480.24
1613.27
1650.73
1506.29
1427.32
1358.12
1688.87
2715.37
786.37
561.46
712.64
818.85
741.87
822.43
976.53
1821.61
1553.15
1298.73
1225.05
1083.74
1299.18
1229.70
1231.46
1546.90
1232.63
936.83
780.36
760.35
740.11
441.06
579.66
952.42
1298.68
1154.30
1153.75
1338.83
1331.98
1227.91
1423.71
1368.64
1415.76
581.08
1212.78
2212.06
2508.37
2106.82
1866.52
1768.38
2646.20
1870.29
1410.59
1166.85
1127.77
1344.87
1398.52
1307.30
1438.16
1275.18
537.56
754.55
870.38
689.14
761.39
1060.94
512.64
1337.41
1356.67
1517.65
1237.41
1146.32
1340.98
1398.82
1695.84
1706.95
1438.98
1022.12
1479.94
2357.66
2674.36
1364.76
694.25
1148.39
1283.72
1380.78
1260.94
1223.98
1673.69
1346.51
1453.70
1499.29
1289.56
928.50
987.06
779.65
837.57
1051.03
1207.26
666.85
1331.89
1205.46
1267.33
1033.08
1229.73
1648.74
1674.21
1355.30
1435.46
1716.92
1111.50
1025.73
1369.68
1330.01
1290.66
1089.99
588.75
1321.15
1320.34
1505.41
1982.88
1811.37
1310.08
1360.44
1931.37
1874.63
1146.13
541.54
685.64
840.09
678.26
1048.59
878.49
1143.74
1557.36
1252.61
1225.45
1308.97
1375.96
1321.74
1262.58
1323.05
1799.62
1239.52
1286.95
790.84
584.06
581.70
682.00
483.46
1360.43
1327.70
1293.20
1514.19
1867.82
1999.58
1468.30
1198.54
1345.52
1345.24
746.19
1107.20
711.91
593.67
1298.89
681.40
913.75
1314.31
1380.98
1174.98
1019.33
1372.45
1542.43
1466.65
1382.18
1667.19
985.47
1045.96
856.48
628.87
848.77
1013.66
1072.83
1576.20
1807.21
2035.00
1814.09
1147.50
1340.26
1484.45
1533.09
1320.00
1368.33
1836.66
3897.46
3880.61
2706.99
1621.54
686.41
2324.02
3803.74
3874.49
2831.60
1595.36
1860.71
1784.02
1607.37
1313.69
2626.23
1773.95
1080.63
749.28
693.25
745.83
928.16
1374.20
2092.75
3159.10
2148.47
2307.43
1024.08
1188.73
1482.07
1246.96
1413.00
1718.74
1728.34
940.53
627.14
1195.29
2177.71
966.01
1376.27
1468.06
2144.37
2335.84
1812.56
1587.39
1489.43
1229.05
1357.29
3203.51
1278.25
690.20
596.11
685.08
418.33
482.31
629.65
673.77
1201.10
1495.94
3142.17
1416.33
1457.40
1293.60
1454.65
1579.00
1419.45
1490.36
531.62
1084.20
1312.02
3896.27
661.56
798.74
891.86
964.09
1582.52
1240.88
1268.45
1358.93
1409.91
1224.34
3597.21
2197.51
2170.37
1989.96
1467.62
1029.46
1028.79
1256.65
1357.43
1280.89
1501.43
1728.42
1150.37
1061.55
1443.28
1320.78
1884.09
1879.12
1618.17
650.18
641.35
715.17
1107.93
1401.87
839.75
544.92
1295.07
1160.60
1339.86
967.76
1065.01
1216.63
1472.07
1422.70
1452.21
1206.08
693.19
1047.58
2124.87
2897.85
2620.95
1321.00
590.85
1328.83
1310.67
1321.59
1152.76
1540.78
2150.80
1613.14
1383.88
1350.21
1208.01
1244.17
871.38
1046.20
1322.04
1748.42
1278.73
1742.81
1355.71
1252.07
1292.81
1459.21
1313.62
1467.53
1468.94
1481.15
1786.63
955.56
784.06
833.53
890.31
516.74
547.99
584.21
1399.12
1209.09
1381.16
1062.70
1085.22
1367.69
1352.65
1267.83
1283.26
1273.77
645.32
414.04
539.85
673.63
665.38
785.65
732.36
1270.29
1384.32
1214.52
1261.00
1403.01
1429.87
1355.12
1656.94
1271.78
1261.07
1009.57
1217.01
1374.90
996.04
606.19
748.32
1250.69
1533.14
2133.19
2146.06
2356.29
2340.83
1981.41
1739.95
1353.05
1411.21
1657.77
1596.98
1764.86
1209.47
519.21
630.16
828.80
1122.16
1076.42
1343.04
1147.78
1192.53
1259.79
1274.65
1312.14
1507.79
1370.09
905.36
431.52
811.39
1129.55
1121.14
1182.15
1874.66
3115.74
3407.86
2084.16
1112.98
1171.87
1398.44
1588.42
1582.27
1393.92
904.11
652.28
609.30
898.37
536.83
564.34
779.86
1190.54
1300.50
1285.30
1106.48
1078.43
1357.51
1554.90
2070.65
1480.05
1433.91
665.45
1122.14
1376.38
1641.15
1448.77
976.73
667.42
1173.86
1807.84
1241.71
1219.85
1080.19
1566.02
1475.39
1674.30
1711.32
1578.77
1295.13
1002.84
1354.90
574.85
873.97
1911.98
2254.53
2581.53
1719.82
1224.78
1151.99
1727.84
1649.39
2158.78
1341.79
1341.05
1070.76
460.27
1060.53
1693.48
1477.10
967.41
645.35
1202.78
2163.44
1102.52
1263.47
1314.25
1836.07
1375.33
1724.72
1719.39
1582.88
701.81
692.53
1681.36
628.55
554.22
698.22
535.24
1287.15
1370.03
1265.59
1039.17
1163.71
1269.52
2568.93
1538.74
1623.53
1341.63
916.21
670.23
601.77
462.30
1064.61
1213.47
1549.54
3010.50
1352.69
1186.39
1248.66
1293.08
1697.44
2279.12
1899.29
1518.47
819.29
1588.27
3877.65
661.33
698.16
542.86
918.72
1255.70
1525.81
1625.33
1824.53
1449.98
1393.60
3840.48
1403.20
1631.91
1463.63
966.54
748.81
693.33
623.84
948.60
519.99
515.15
3475.75
1582.19
2220.56
1520.98
1418.08
1283.67
1410.83
1351.01
1415.19
1294.77
847.32
1247.27
608.30
892.85
762.48
500.71
598.49
1225.40
1124.35
1227.45
1352.41
1142.24
1307.55
1357.72
1379.26
1564.64
2383.64
3038.15
2736.54
2238.14
1403.91
529.55
1052.19
1602.82
1606.70
1120.22
1215.97
948.90
1390.72
1363.59
1386.37
1445.31
1576.54
1297.69
776.11
904.81
1033.37
614.72
903.53
662.46
1915.28
2788.17
2346.05
1268.50
1310.90
1322.31
1310.45
1336.51
1468.15
1473.34
873.90
1006.77
1255.86
1290.22
1172.58
1083.52
1507.59
2485.57
2243.79
1533.13
1078.49
1391.71
1588.28
1212.85
1325.28
1293.98
677.35
561.84
692.98
1080.33
655.35
660.96
739.97
1041.50
1440.47
1499.59
1248.94
1133.50
1196.14
1656.30
1731.12
1697.08
1329.68
696.11
752.82
1238.69
1388.89
1492.61
1442.63
1214.80
1712.85
1381.79
1305.41
909.21
1188.66
1516.98
1398.71
1278.30
1651.09
1327.97
569.93
657.23
498.73
465.38
753.30
677.54
745.60
1320.27
1298.48
1224.86
1024.37
1346.14
1430.75
1318.83
1655.84
2372.89
2283.01
1497.69
1021.75
1324.92
1857.65
2285.13
1731.25
1625.03
1355.62
1282.48
1050.95
1167.85
1107.87
1328.82
1294.44
1439.48
1589.61
1333.36
1896.51
630.49
742.10
796.62
1316.74
1168.86
1330.35
1467.18
1187.08
1565.58
2111.77
1730.21
1228.84
1482.03
1290.17
1465.10
1016.12
1058.35
831.85
1177.22
1051.75
750.15
1400.15
1413.53
1362.67
1481.60
1341.18
1519.83
1375.81
1292.39
1350.90
1348.77
878.77
1114.93
763.63
571.24
935.65
1867.73
2095.01
1694.01
1220.02
1252.93
1261.78
1225.04
1740.49
1305.33
1317.31
1291.40
1514.61
1334.93
1399.04
1673.93
1377.59
1257.40
1379.68
2179.70
2563.23
2970.95
2638.75
1580.12
998.48
1579.44
2099.72
2203.28
1767.37
1544.51
1663.80
765.57
1003.77
975.18
1272.55
1351.59
985.88
1442.43
2210.59
2243.05
1448.45
2271.26
1211.57
1338.57
1217.01
1400.08
1609.34
2398.55
2794.09
2553.12
2256.88
1853.73
2387.54
1885.56
2123.05
2016.89
2254.76
1529.65
1377.95
1296.80
1419.25
1572.44
2101.00
3905.96
651.83
906.09
1057.23
1127.41
977.44
727.90
2113.41
2434.84
2637.89
1587.94
3894.39
1174.10
1328.72
1516.83
1684.41
1679.70
1001.15
687.60
691.50
558.51
531.61
3041.32
931.04
1883.30
2357.52
2543.98
1723.52
1510.61
1413.97
1316.54
1882.62
1901.60
3938.38
619.58
1118.69
1229.18
1223.74
867.18
829.60
1046.40
1365.62
1223.23
1244.04
1596.25
1339.98
1278.82
1238.50
1287.31
1333.21
741.23
866.38
912.37
1213.02
1337.38
1422.10
1598.48
2478.92
2620.57
2451.45
1990.18
1892.83
1384.14
2323.72
3229.77
2388.45
2069.30
1322.35
608.61
602.96
396.21
739.88
431.97
647.94
1219.77
1139.31
1305.54
988.83
1326.48
1495.36
1660.87
1960.13
2205.61
2331.99
1905.47
1408.20
1261.60
1009.36
674.90
799.82
1169.22
1292.77
1277.00
1073.93
774.93
1157.55
1374.04
1388.41
1768.32
1557.24
956.58
1354.02
741.81
830.44
698.87
660.40
726.01
1263.99
1215.80
1295.92
1200.76
1288.82
1767.11
2293.72
2463.27
2358.19
1633.78
701.38
479.97
640.77
502.03
994.09
952.65
659.86
1543.00
1519.32
1570.61
1409.28
1454.58
1279.88
1316.66
1358.12
1496.35
879.86
1292.72
1537.55
1523.47
909.30
404.00
870.27
1031.63
1077.26
1206.63
1131.24
1273.07
1384.23
1405.07
1619.17
1504.85
1674.71
857.78
839.37
640.44
658.22
835.19
1322.36
903.34
1646.97
1497.96
1440.50
970.30
1335.70
1470.55
1595.42
1331.48
1264.65
1417.81
978.41
1064.61
859.96
534.09
681.75
743.94
635.76
1303.90
1259.55
1480.61
1817.58
1255.76
1241.01
1444.72
1645.73
1460.65
854.25
1128.37
1291.21
1196.96
1510.44
1890.31
1388.07
1397.33
1381.56
1436.44
1096.14
1104.65
1190.53
1302.64
1226.30
1289.80
1820.46
833.70
514.54
619.81
916.08
933.90
886.13
764.05
1579.25
1494.15
1649.78
1811.00
1198.05
1213.63
1308.15
1407.55
1380.05
1461.20
914.41
923.77
982.95
925.40
1346.15
509.39
713.44
1519.38
1771.12
1798.57
1585.08
1825.66
1743.78
1602.57
1471.85
2103.17
991.14
909.06
989.83
874.86
813.86
769.57
583.14
1111.62
1355.46
1356.94
1745.42
1264.18
1171.66
1712.35
2097.20
1811.76
1218.84
748.12
452.45
632.28
645.11
2131.01
1904.74
1796.42
2192.77
1788.82
1611.55
1154.84
1221.98
1696.45
1591.89
1314.80
2596.14
1482.14
588.78
323.41
947.56
1272.79
1007.84
528.23
1223.23
1319.48
1340.45
2964.14
1353.54
1504.83
1415.51
1384.83
1515.33
1443.79
885.35
1011.29
1311.22
2124.60
3196.84
2085.80
1400.67
1507.12
1432.09
1378.38
1622.68
1588.41
1654.53
1689.85
1825.12
3900.91
1617.48
810.27
742.71
1022.76
1165.46
584.91
697.64
638.49
1835.22
1753.99
3924.75
1261.02
1441.60
1387.70
1440.33
1660.26
1575.68
1533.18
1055.57
930.99
616.96
1110.73
782.46
852.37
917.03
1546.17
1947.63
1756.89
1590.35
1539.51
1507.73
1508.91
1451.81
1572.85
952.70
522.97
682.40
796.36
580.36
701.42
583.12
1161.70
1474.13
1517.17
1409.23
1220.50
1460.88
1343.81
1447.15
1596.29
1492.39
960.35
1094.58
708.14
483.31
589.17
788.50
1129.94
1930.40
2310.89
2734.82
2890.96
2982.72
2918.58
1707.47
1560.15
1814.65
3111.86
3872.37
3086.90
1838.75
634.55
580.37
843.28
1317.12
1798.77
1776.69
1563.23
1226.87
1201.89
1472.18
1698.01
1555.76
1749.05
1312.24
1020.59
831.59
1118.96
1140.79
854.42
723.40
1338.79
1693.14
1422.53
1338.86
1486.39
1535.06
1620.27
1585.27
1704.00
1751.98
885.15
900.20
617.06
1078.48
1623.01
1602.18
855.60
1625.61
1874.27
1913.79
1194.82
1337.80
1557.81
1499.74
1309.95
1544.60
1605.16
1931.41
2229.01
1873.86
892.87
666.80
1289.49
846.97
1504.03
1588.81
1737.57
1326.81
1324.37
1364.15
1477.06
1725.23
1717.64
1102.29
944.76
749.60
557.20
655.68
600.87
665.70
1412.78
1401.97
3481.13
1969.09
2084.36
1324.48
1566.73
1619.73
1509.66
1440.47
763.03
660.74
801.37
2708.27
848.63
695.42
666.89
1510.27
1375.45
1315.02
1061.04
1304.67
1355.22
1587.09
1685.02
1890.37
1612.42
1137.73
1801.86
1687.84
1648.73
931.26
432.74
1017.37
1471.38
1382.24
1355.44
1188.91
1302.24
1351.24
1358.78
1349.02
1498.56
1074.31
700.47
1197.45
944.13
1206.49
893.47
815.66
1382.00
1593.17
1291.56
1327.24
1587.45
1848.99
1812.57
1780.26
1738.44
1530.20
658.63
602.84
718.90
921.60
592.82
670.52
823.64
1154.17
1645.96
2366.23
1256.43
1302.51
1525.36
1456.62
1344.72
1543.92
1457.83
1073.78
1467.79
1249.19
1455.20
912.51
700.02
947.21
1504.24
1382.88
1737.39
1811.19
1748.69
1628.05
1421.06
2324.25
1651.80
768.79
551.09
523.01
712.21
641.50
466.21
923.34
1349.39
1327.87
1360.80
1298.53
1361.29
1396.16
1319.52
1460.28
1497.01
1651.65
1332.06
1327.27
891.20
752.60
847.07
736.22
574.00
1338.91
1260.25
1334.71
1060.05
1464.05
1610.49
1682.58
1459.27
2103.44
1404.80
1145.92
1201.82
1366.97
1674.08
1820.82
1297.81
1244.27
1607.10
2158.16
2122.07
1154.29
1375.68
1402.04
1314.35
1389.77
1433.82
1333.49
995.47
592.68
717.56
1307.50
1091.55
1137.34
1821.44
1819.05
1978.61
1619.40
1447.59
1667.84
1556.03
1534.34
1961.09
1659.99
626.14
491.23
799.34
837.50
649.98
881.33
681.79
1621.53
1377.17
1918.67
1189.25
1315.67
1261.22
1335.01
1540.49
1681.56
1653.77
1141.87
585.00
546.87
1635.60
823.61
675.00
964.76
1481.72
1421.86
1367.00
1298.00
1617.26
1412.68
1527.92
2339.34
1645.15
1065.01
786.87
607.60
549.99
515.65
809.12
691.31
1301.74
1228.23
1429.18
1330.01
1059.02
1485.78
1289.45
1363.36
1330.63
1393.78
1019.03
644.48
1186.65
1238.75
974.69
533.52
909.98
2288.65
3205.17
2848.86
2007.22
1887.16
1756.73
1878.79
1470.67
1689.24
1387.04
793.45
417.42
761.82
956.89
973.06
685.62
1009.69
1318.74
1805.71
1957.22
1306.77
1444.81
1488.68
1540.55
1722.77
1707.83
964.25
605.93
537.24
746.62
1702.92
527.57
777.49
1553.25
1708.12
1538.61
1423.50
1006.42
1481.89
1368.79
1474.80
1761.07
2069.38
1605.66
1501.85
883.68
592.72
1653.40
2488.81
2471.35
2587.90
1987.39
1494.75
1290.16
1442.81
1967.29
2281.07
2273.44
2105.56
2049.91
1260.49
625.84
799.42
567.20
983.68
1229.39
1321.93
2074.13
2183.07
1633.95
1255.04
1328.37
1431.09
1457.76
1873.83
1703.80
1299.12
866.03
488.85
1575.89
2602.44
2288.99
1424.00
1727.89
1341.90
1205.96
1285.15
1451.98
1639.00
1862.97
1572.59
1581.24
2219.72
2364.60
1863.21
1491.98
854.58
785.34
981.53
1059.86
1692.82
1377.48
1499.82
1025.66
1221.90
1449.81
1299.68
1545.88
1632.22
1381.86
726.07
693.29
1125.91
1156.78
618.46
623.36
1199.52
1377.28
1448.99
1436.73
1344.51
1511.62
1874.65
1741.85
1759.45
2354.71
2358.15
1965.85
1391.34
606.46
764.80
638.23
608.65
1081.85
1494.85
1406.12
1340.37
1140.92
1480.51
1470.69
1541.31
1581.85
1580.03
629.57
775.20
1254.15
1741.15
1401.19
1381.67
1097.72
1441.01
1476.58
1450.49
1435.15
1349.71
1258.62
1701.28
1555.30
1539.47
1572.40
1122.63
859.17
904.53
956.68
1146.84
1943.81
2045.88
1460.14
1458.22
1224.35
1212.23
1581.54
1433.87
1640.61
1930.49
1456.56
1018.48
612.77
594.48
707.20
727.83
679.07
1096.10
1375.02
1459.34
1853.63
1528.66
1531.92
1523.70
1713.70
1581.94
1676.05
1507.56
807.92
742.23
921.93
1579.92
977.26
824.12
965.64
1945.38
1813.26
1343.45
1240.68
1525.60
1498.27
1384.99
1742.40
1927.85
1798.61
1477.93
1417.07
1328.41
1096.32
836.31
809.00
1547.52
1508.84
1733.44
1510.45
1439.53
1481.54
1448.02
2274.75
3020.25
2913.87
1830.09
674.02
750.47
1782.64
1448.96
1916.43
1619.48
1630.63
1450.01
1553.12
1445.82
1628.15
1619.30
1433.54
2356.39
1519.22
1550.51
567.66
1149.76
1289.01
1331.47
648.72
772.07
802.64
1357.56
2805.27
1491.62
1265.58
1385.35
1346.68
1472.31
1567.59
1435.75
1401.80
682.99
516.73
2339.71
623.02
810.06
860.53
1122.04
1664.72
1261.59
1293.51
1275.28
1466.33
1327.88
3292.74
1474.12
1450.29
803.77
814.75
1100.74
706.26
518.76
1167.61
1198.73
1588.48
3785.19
1461.50
1302.21
1293.22
1625.81
1525.98
1818.33
2167.96
1970.16
1803.24
1576.05
2805.58
804.30
1253.45
965.24
702.46
1598.85
1996.80
1815.12
1175.16
1306.81
1389.25
1715.43
2338.22
3000.99
2569.22
1769.72
1142.99
879.13
2060.00
2985.83
2916.06
2540.85
2593.04
1785.66
1348.63
1207.47
1392.93
1336.62
1386.45
1275.24
1342.08
752.56
776.25
721.43
717.90
1050.64
780.11
780.89
1318.28
1458.66
1698.74
1929.52
2159.27
1861.05
1415.27
1330.23
1476.96
1413.27
737.06
568.28
783.46
926.02
999.87
673.42
561.60
1133.84
1380.03
1509.54
1497.45
1361.83
1456.63
1458.36
1367.13
1410.64
1421.24
625.59
644.62
899.87
1046.64
907.79
1103.37
1634.89
2896.04
2392.57
1563.42
1200.86
1327.69
1520.85
1589.96
1449.19
1563.34
1187.35
889.05
715.41
683.27
1395.08
2065.02
1737.94
1746.67
1548.38
1309.32
1183.99
1529.25
1847.20
2668.01
3532.30
3839.14
3973.21
3150.97
1071.69
1509.89
2602.63
2588.28
2914.38
2791.80
1854.30
1411.26
1314.11
1289.46
1606.40
1824.65
1677.13
1567.50
1297.76
1412.91
967.62
1326.73
1313.17
1545.43
1625.62
1211.90
885.83
1679.28
1553.49
1934.08
1743.44
1690.90
1350.92
1298.55
1334.88
1491.63
1154.46
1222.67
954.56
857.20
767.17
616.51
640.30
1262.85
1836.24
2075.79
1596.41
1616.56
1632.81
1807.05
1701.51
1446.15
1396.88
650.16
645.06
717.28
1053.54
944.18
554.93
468.64
1799.78
1387.95
1087.44
1245.38
1278.92
1237.39
1210.23
1449.16
1303.95
1409.22
1069.55
1353.41
703.43
445.25
725.60
687.20
769.59
1495.57
1334.07
1251.20
1025.97
1355.78
1625.75
1375.44
1377.36
1508.68
806.34
604.03
683.23
690.04
939.39
891.88
1202.78
2508.22
1431.74
1236.46
1358.61
1207.11
1267.26
1239.97
1204.62
1411.12
1397.64
922.84
2793.11
1354.78
1620.28
1228.79
892.71
588.73
1265.62
1272.86
1498.34
1065.28
1292.65
3973.43
1431.39
1397.79
1451.91
1586.01
987.52
527.41
576.00
743.93
779.74
1142.55
2721.23
1782.95
1799.37
1449.96
1406.43
1465.58
1328.63
1304.60
1338.75
1382.54
921.90
3739.08
1416.84
721.79
932.16
1295.69
1049.31
1109.17
1380.53
1340.86
954.05
1289.92
1314.62
1429.60
1363.09
1342.88
1314.93
647.76
730.63
663.38
487.77
805.43
471.37
563.69
1179.85
1267.47
1212.04
1148.60
1005.98
1397.84
1717.31
1935.82
2141.37
1582.51
866.90
569.62
836.99
782.26
601.67
946.79
1218.46
1343.54
1639.47
1579.06
1342.58
1785.39
1946.34
1341.77
1494.63
1459.81
815.25
567.83
715.39
820.75
731.35
734.56
1136.06
1282.29
1262.14
1431.42
1383.67
1334.36
1337.25
1570.64
1361.34
1447.80
1493.52
969.49
979.54
1185.92
1041.91
1030.24
854.28
1247.74
1604.50
1766.47
1826.36
1597.50
1809.45
1460.87
1527.08
1381.09
1467.36
1521.78
616.31
758.33
793.82
971.68
647.41
766.77
1496.47
1755.46
1261.27
1435.00
1351.82
1257.54
1322.39
1375.79
1355.40
1476.38
764.47
514.79
715.76
1109.62
1311.31
1311.62
1580.70
2343.75
2656.28
3322.63
2979.23
2290.50
1957.24
1821.39
1582.83
2335.77
2492.22
2179.65
1508.63
884.98
432.85
779.57
493.72
593.53
1690.66
1623.94
1475.66
1331.98
1205.37
1365.88
1384.94
1410.18
1505.05
1653.20
1051.97
1255.82
932.02
791.88
822.92
925.02
1063.97
1608.88
1499.26
1580.04
1890.18
2759.56
3493.31
3254.53
2297.07
1684.61
1062.59
2036.50
2075.28
1643.15
1154.58
593.17
636.03
2033.76
1118.48
1472.33
1724.59
1352.06
1241.02
1391.46
1199.35
1281.87
1300.34
1029.95
2381.67
1555.23
1376.19
912.51
687.09
1080.36
1830.68
1833.17
1820.76
1921.24
2185.41
2535.22
1329.70
1478.99
1433.32
1319.36
724.56
1120.01
629.27
630.78
787.93
825.81
2674.34
1356.61
1245.24
1390.45
1064.53
1313.54
1309.83
1553.83
1381.86
1412.69
1024.62
2810.75
914.04
602.08
1085.97
1939.66
2113.01
2388.94
1876.94
1290.25
1020.72
1256.07
3853.66
1553.88
1292.65
1430.61
1457.85
1158.68
1262.01
1290.44
1068.91
693.47
876.25
3611.20
1253.13
1943.55
3046.03
2812.11
1370.90
2218.45
3129.65
3957.63
3752.89
2822.47
3821.70
1198.06
661.38
634.28
1070.99
674.24
461.15
1243.88
1486.95
1360.62
1374.48
1670.33
1865.05
1509.65
1315.83
1357.10
801.60
764.58
577.20
777.82
896.29
572.29
463.31
1263.85
1281.15
1329.15
1090.13
1268.03
1345.55
1751.51
1708.78
1653.95
1779.80
992.54
603.12
557.56
560.54
689.20
1113.16
1145.40
2089.91
1973.21
1694.04
1243.69
1440.09
1514.76
1338.78
1298.89
1395.76
1469.57
1046.52
1156.14
1246.98
675.42
415.75
1008.53
1437.96
1852.11
2133.89
1357.36
1184.47
1279.88
1303.00
1481.30
1471.38
1439.72
841.80
1080.36
762.04
1223.45
1073.38
816.27
874.24
1269.60
1123.36
1827.29
1530.12
1322.19
1633.32
1462.42
1408.13
1466.25
1529.12
987.37
1160.36
881.06
845.10
812.26
890.00
794.22
1302.91
1449.60
1334.37
1070.60
1161.53
1390.95
1314.61
1159.26
1484.61
1300.25
1324.58
784.46
781.54
546.36
901.75
958.39
1037.66
1736.89
1680.81
1652.26
1352.73
3647.13
1383.10
1396.36
1366.24
1175.27
496.92
542.19
680.46
765.69
466.56
724.54
502.16
1243.17
1279.80
1207.76
1188.95
1273.48
1531.59
1452.04
1308.10
1189.58
1579.81
1585.22
2328.95
1650.12
884.85
687.08
895.97
1132.06
1251.02
1369.35
1215.95
1068.89
1147.82
2178.62
2034.93
2825.52
3824.78
3803.31
2268.62
1300.34
711.30
1260.04
2041.08
2224.70
3404.77
2253.04
1422.37
1144.19
1035.62
1220.53
1250.17
1206.61
1276.31
1517.38
1096.30
1822.77
1120.72
1159.78
1258.07
1218.24
1271.16
1631.35
1603.15
1330.14
941.33
966.47
2522.56
1317.24
1333.61
1219.05
1182.88
906.83
784.28
492.50
908.59
868.43
741.10
2212.00
1072.73
1127.65
1291.72
1000.17
1271.15
1097.24
1467.40
1513.73
1617.48
1513.38
2951.14
1124.62
1151.47
1190.95
1406.54
957.01
1049.36
1232.52
1190.77
1033.63
933.68
3846.95
1601.28
1760.45
1971.68
1282.29
615.50
1337.73
1811.47
1694.21
715.97
797.86
3315.98
1247.25
1087.57
990.30
1014.09
938.60
1398.93
1201.53
1444.21
1331.83
1413.27
1920.93
946.01
1337.09
878.35
720.11
673.72
782.19
1780.79
1833.91
2418.50
1954.19
2268.79
2355.01
1835.92
1393.70
1406.08
1246.06
702.62
514.32
467.28
681.04
736.65
1054.20
1207.46
2341.82
3842.93
3284.39
1711.95
1051.99
1589.06
1647.12
1735.39
2136.54
1763.48
1268.90
925.91
915.36
429.52
567.60
608.74
1533.54
1687.01
1769.99
1668.44
1294.28
1651.77
1515.29
1931.55
1701.02
1416.77
463.85
625.62
705.15
477.66
645.41
778.12
573.86
1337.17
1157.34
1139.99
1101.54
1066.09
1220.31
1372.37
1118.57
1299.89
1022.34
837.69
767.31
339.16
432.12
785.57
704.42
1003.09
1745.05
1876.53
1619.54
1353.91
1416.49
1588.56
1360.68
1359.56
1255.26
853.23
1132.86
1811.85
1966.15
1133.56
560.59
930.89
1736.15
2090.26
2105.53
1446.82
1303.53
1514.93
1365.09
1263.59
1335.62
1742.90
1429.98
1665.68
1792.25
1615.07
1711.30
1449.51
1209.26
1999.28
2062.10
1925.98
1160.66
1288.69
1400.37
1630.34
2132.56
1897.18
1436.15
801.38
1456.76
1763.54
1356.01
606.25
514.15
1064.74
1388.99
1558.14
1460.66
1358.78
1459.60
1643.20
1321.03
1273.19
1153.71
584.11
578.16
568.72
939.01
827.17
1001.36
1250.69
1744.30
1515.34
1362.72
1191.89
1079.35
1513.09
1597.04
1823.44
2114.71
1740.72
832.10
579.51
953.45
955.99
338.68
544.01
1061.03
1311.90
1172.37
1158.32
1119.36
1266.84
1319.33
1335.70
1194.92
1296.79
1228.15
1276.40
574.26
526.32
538.29
658.01
532.99
866.39
1679.36
2019.38
1883.58
2070.78
2778.69
2508.53
1648.85
1387.04
1379.87
1088.11
1216.02
1075.67
944.12
767.51
808.38
931.76
1374.05
1087.77
1385.23
1330.81
1406.14
1907.11
1804.36
1605.68
1372.38
1309.62
1429.58
1042.80
936.57
838.99
363.51
785.53
934.92
1259.60
1234.43
1416.31
1107.36
2021.77
1806.39
2214.88
1821.12
1423.86
1266.91
537.09
742.23
1253.88
1449.01
831.79
1935.21
581.88
1094.42
1361.65
1310.15
1113.29
1147.23
1149.70
1493.57
1320.27
1264.37
2990.90
494.81
493.47
548.49
628.91
835.67
779.60
1289.17
1598.15
1580.02
1167.79
1059.41
1808.00
1350.61
1555.31
1503.37
2008.84
1512.19
862.35
619.38
568.97
942.54
771.86
1344.76
1365.71
1088.94
1225.43
1041.43
1232.56
1477.58
1493.26
1369.68
1567.64
1299.89
2358.57
1760.69
1851.31
911.75
809.51
1449.18
1296.39
1345.61
1521.37
1818.37
1634.22
2817.64
1403.26
1335.87
1344.60
1348.11
977.84
956.00
846.40
386.76
614.34
479.45
3077.59
1109.47
1212.68
1140.07
1109.54
1218.29
1342.38
1384.69
1364.28
1127.95
1275.60
3690.82
975.71
1293.30
2129.00
1702.36
1539.82
1106.39
1838.94
1456.27
1535.95
805.45
2460.20
1276.04
1756.24
1565.52
1534.72
1176.03
636.68
980.04
1935.13
1964.00
1861.89
2483.33
735.59
1108.87
1258.51
1314.54
1070.84
1130.51
1184.21
1082.50
1188.23
1268.58
810.99
884.89
1137.80
1361.30
1705.32
1650.51
1748.65
1594.23
1671.87
1619.83
1533.97
1305.76
1604.07
1366.34
1196.32
1087.67
1408.48
648.13
629.60
584.73
618.16
548.74
558.52
909.09
1143.24
1337.35
1325.94
1223.48
1320.84
1395.07
1262.64
1157.83
1521.20
1321.23
985.75
779.12
1335.81
1132.31
575.90
568.23
1193.95
1329.36
1691.93
1601.22
1229.31
1827.24
1505.92
1586.74
1642.22
1563.42
743.99
480.14
431.07
711.78
713.73
596.61
594.74
1205.27
918.07
1204.55
1392.09
1444.60
1655.76
1336.96
1159.19
1213.86
1253.92
761.86
576.09
598.90
939.91
1006.03
2023.71
2896.78
2763.51
2329.13
2202.11
2016.85
2356.52
1441.50
1246.26
1683.45
1778.19
2036.86
1976.48
632.62
764.17
589.01
710.85
1142.50
986.73
1315.07
1142.38
999.79
1000.81
1209.84
1214.00
1644.92
1307.41
1220.83
1902.53
1754.81
1791.28
980.82
452.30
1663.95
2030.53
1204.27
1384.27
1818.11
2271.07
3195.44
3755.12
3973.67
3450.31
1842.11
1425.57
2184.91
3576.23
3969.40
3446.84
2567.17
2291.80
644.14
1250.97
1099.43
1264.33
1051.21
1334.07
1269.95
1775.84
1880.16
2410.66
2898.83
2414.12
1693.44
1154.24
900.47
862.58
683.37
800.80
1074.58
1230.40
1008.12
2470.28
1165.04
1355.57
1266.01
1459.20
1343.52
993.39
928.30
757.18
1193.36
1283.93
2367.32
570.21
1000.97
1231.78
1200.99
1222.94
1053.02
1325.39
1247.61
1150.69
1278.22
3316.96
891.04
1111.03
1180.04
1211.64
1160.92
1073.59
1161.25
2033.86
2019.94
1565.91
3006.67
1347.57
1241.88
1297.47
1152.26
1394.23
1267.51
930.97
595.31
381.01
706.52
3431.29
1266.72
1472.96
1398.10
1598.37
1458.46
1394.02
1148.93
1316.78
1281.91
1264.35
2416.91
1042.12
945.78
862.80
894.87
1090.31
1041.94
670.20
1042.64
1032.72
1143.68
964.23
1202.93
1401.73
1180.76
1291.40
1316.18
1422.78
883.89
716.52
554.43
512.76
517.31
739.41
622.16
1158.52
1370.43
1014.00
1009.67
1317.61
1308.80
1175.59
1167.87
1464.89
1236.56
649.30
679.56
1305.11
1717.46
2121.71
1866.96
1320.22
1428.94
1444.68
1193.01
1130.23
1192.50
1485.37
1411.90
1324.57
1266.93
661.94
696.79
754.04
731.23
889.81
927.18
643.15
1339.19
1359.35
1067.13
1067.47
1099.88
1662.49
1603.82
1852.76
1786.40
1620.21
912.08
460.14
1136.81
1458.48
1142.11
714.29
465.64
1213.81
1469.80
1694.59
1717.49
1888.90
1550.27
1435.35
1550.47
1826.32
1556.01
424.41
1152.45
667.78
766.98
904.00
619.26
1187.68
1327.40
1355.69
1242.21
1188.58
1326.72
1590.25
1310.65
1127.64
1419.64
1102.35
981.43
600.80
531.99
679.64
741.19
560.97
1352.72
1545.92
1603.69
2935.27
1360.47
1569.00
1638.28
1960.97
2087.62
2297.62
1695.13
1236.29
583.94
751.70
3670.33
1440.72
1287.19
1704.97
1609.73
1520.54
1117.97
1240.80
1216.38
1259.75
1242.70
3869.96
1187.80
697.23
756.01
949.45
989.44
596.21
1199.37
1536.95
1643.61
1492.88
2339.07
1273.32
1636.11
1589.94
1368.58
1606.98
1799.37
1099.79
638.33
459.57
548.75
673.13
583.42
1015.43
1338.82
1311.14
1586.61
1779.64
1805.42
1630.18
1309.24
1624.25
1925.07
1525.85
678.00
699.15
728.40
1956.08
2627.53
2727.76
2299.38
1155.09
1571.12
2413.75
2433.28
2394.62
2427.04
2422.02
1938.55
1594.38
1112.85
566.55
1300.60
1669.21
917.21
415.96
407.63
531.47
1020.69
1197.46
1209.95
1075.87
1143.20
1383.50
1433.91
1882.59
2046.40
1388.55
967.66
537.18
921.51
1918.44
1781.28
1099.39
883.08
1903.86
1884.19
1582.49
1453.40
1563.19
1376.55
1385.04
1418.66
1314.38
454.59
673.31
1040.99
1265.70
1293.18
774.78
481.35
1329.56
1179.54
1397.69
1199.27
1261.78
1329.89
1642.17
1636.13
1679.53
1212.34
1141.00
1037.35
1259.68
884.67
598.88
1030.67
860.28
1209.76
1303.31
1325.89
1116.69
1149.65
1817.18
1435.88
1613.33
1437.00
1137.31
964.87
603.83
523.20
1855.65
1136.82
711.22
1257.61
1238.47
1207.02
1196.33
1140.23
1343.27
1116.55
1257.32
1966.99
1192.70
796.47
746.47
943.06
990.96
621.76
526.63
656.67
1210.08
1232.38
2234.64
1163.08
1445.62
1673.69
1470.11
1271.31
1627.74
1608.42
1388.52
986.61
738.03
424.70
830.10
735.16
741.55
1058.20
1228.42
1123.52
1056.21
1142.62
1303.53
1267.04
1369.14
1335.74
1373.75
1376.20
1339.73
885.67
896.85
916.56
1029.81
1687.55
1576.90
1137.40
1338.85
1095.69
1202.98
1219.33
1235.92
1293.38
1309.20
747.55
1047.85
649.26
623.05
825.85
502.08
686.28
1141.87
1406.51
1360.99
1201.09
1044.33
1251.34
1253.25
1230.63
2919.02
1279.96
1082.25
874.24
901.80
1763.13
2793.72
3355.10
3102.80
2635.54
1441.14
3900.93
1112.72
1519.67
1535.23
1431.74
1398.10
1570.12
1324.96
774.05
1124.01
2262.14
3817.26
827.28
614.71
1123.89
1200.75
1141.80
955.72
1158.41
1500.59
1739.94
1771.08
2513.50
1327.32
783.02
410.33
650.52
1290.32
1391.30
679.74
753.27
1179.59
1349.68
1362.09
920.97
1197.44
1299.25
1485.88
1548.26
1417.21
1065.00
476.00
374.52
556.68
724.25
758.67
858.49
826.39
1051.76
1191.06
1138.52
1014.97
1255.95
1247.53
1195.28
1110.39
1989.20
802.41
1002.71
1044.64
596.14
852.02
728.68
546.85
1332.08
2108.31
2250.92
2002.15
1763.94
1982.74
1869.88
1894.06
1549.26
1708.88
625.14
955.32
1688.20
2008.57
2140.79
2289.12
1621.98
1330.24
1163.21
1527.36
1570.84
1598.02
1874.00
1300.55
1205.09
1376.12
994.69
488.70
472.16
629.71
704.63
432.57
681.40
1571.44
2339.65
1896.49
1441.57
1021.44
1242.25
1532.59
1563.62
1486.81
1658.14
837.75
896.50
922.99
767.75
785.33
666.73
784.55
1600.05
1633.02
1995.09
1279.79
1392.12
2057.84
2187.46
1746.30
1633.40
3266.15
1611.92
864.50
564.70
941.24
1129.10
1013.80
825.65
1404.96
1452.61
1574.24
3566.38
1265.26
1242.38
1364.77
1458.56
2134.41
1509.77
1106.69
928.55
813.18
482.03
1233.80
696.11
1372.65
1416.29
1255.02
1173.43
1203.51
1115.20
1315.34
1269.58
1325.92
1137.14
740.24
1105.70
1134.90
969.91
772.19
1037.86
866.70
1488.98
1571.27
1961.40
1012.70
1085.16
1223.21
1312.75
1480.44
1302.26
2058.60
2261.99
2042.29
1236.97
1012.61
869.60
959.72
551.78
1174.56
1897.10
2075.47
1530.69
1591.43
1271.77
1411.83
1444.47
1468.67
1129.76
671.61
1335.20
1351.56
1001.12
1268.92
1101.21
1114.22
1426.16
1426.69
2190.54
2530.07
2458.85
2212.63
1539.83
1596.74
1938.51
1909.50
1520.62
720.54
680.73
655.73
640.11
544.04
1321.61
1210.25
1394.22
1451.76
1466.60
1908.74
2142.13
1338.18
1319.67
2240.85
2023.69
1490.22
767.50
478.66
720.50
731.04
933.66
1719.02
1813.95
2129.08
1638.28
1375.14
1449.36
1450.46
1344.86
1600.17
1128.97
599.70
755.78
536.43
478.55
687.04
598.19
769.47
967.92
1160.72
1121.71
1292.08
1146.61
1184.91
1191.17
1281.18
2266.73
1564.00
1954.83
2309.81
2416.14
2116.87
1265.94
580.91
1108.57
1375.13
1129.59
2287.22
1034.46
1336.41
1262.16
1252.72
1348.07
1428.37
759.05
622.49
768.92
760.76
1967.12
798.69
906.83
1140.92
1350.59
1309.29
1176.73
1387.89
1008.69
1246.40
1123.52
3108.47
985.81
460.78
584.32
818.02
1074.93
1038.34
965.83
1281.70
1833.35
1568.77
3568.02
1098.76
1250.33
1528.92
1274.40
1381.61
1211.73
662.09
493.40
707.43
437.43
1282.94
1731.62
2373.37
2555.54
2095.08
1282.86
2635.06
3772.67
3727.70
2083.33
1149.29
1542.51
1556.15
1123.03
644.28
768.01
1236.36
1385.71
555.17
830.67
1653.80
1756.67
2006.06
1678.66
1503.70
1359.91
1465.18
1219.41
1261.31
1242.89
923.73
609.35
360.73
794.70
586.01
643.74
1239.35
1666.21
1260.09
1737.47
1667.60
1390.57
1587.38
1875.47
1957.78
1901.18
1279.91
1731.40
1691.23
1009.95
483.28
1386.86
1616.94
2211.68
2380.93
2346.33
2041.43
1240.00
1136.00
1206.67
1156.06
1171.42
1210.55
422.21
814.46
433.65
481.63
1910.08
530.01
432.82
1348.76
1159.15
1299.16
978.66
1152.54
1318.41
1342.67
1285.67
1294.43
1243.33
713.21
813.27
1528.54
1795.09
1739.94
1276.91
967.73
1272.45
1295.52
1125.55
1084.33
1167.80
1306.22
1247.67
1505.23
1088.92
917.71
797.27
765.19
520.30
799.65
882.10
1219.30
1372.39
1565.61
1410.63
979.96
1116.40
1277.03
1260.73
1617.69
1225.14
1942.62
567.28
907.36
674.97
882.66
874.59
1128.19
1022.74
1614.51
1916.17
1663.71
2991.71
1246.76
1821.54
1600.18
2107.84
2383.46
1984.48
1435.02
1205.31
587.45
1210.56
3932.08
2527.95
2657.33
2643.61
1729.33
1368.10
1327.69
1215.68
1362.17
1429.06
1385.41
2009.65
872.36
834.99
795.04
443.17
940.46
1297.18
1572.46
1649.22
1652.33
2071.81
1562.73
1268.82
1318.06
1476.39
1203.71
1367.07
1521.51
657.00
663.78
540.05
605.42
462.96
927.56
528.39
1338.27
1100.70
1174.94
1201.97
1160.38
1149.89
1253.10
1215.40
1282.00
1370.33
601.24
339.85
680.57
1791.49
2116.73
1520.31
1357.12
1833.52
1778.14
1633.59
1723.12
1729.23
1580.08
1732.65
1612.13
1287.75
795.93
636.38
528.07
663.36
566.12
2021.08
708.76
1545.53
1663.69
1321.78
1099.97
1012.75
1331.02
1258.62
1258.29
1303.30
1447.14
945.35
900.90
839.54
729.80
932.74
1197.95
1288.32
1662.97
1596.19
1374.39
1093.26
1367.15
1446.58
1721.93
1386.48
1585.49
1355.03
625.79
654.86
770.02
501.76
499.29
774.58
774.50
1105.20
1156.24
1001.42
1338.99
2214.16
1848.44
1407.66
1310.39
1414.29
1860.04
977.72
830.84
533.01
838.84
909.52
1407.92
2081.01
2723.33
3043.38
2490.19
2148.26
1930.47
1561.14
1478.33
1097.88
1274.32
594.13
636.98
402.13
668.72
972.48
971.83
799.36
1321.19
1267.44
1132.55
1019.61
1384.75
1219.39
1366.15
1086.97
1175.70
920.85
1510.62
719.14
761.69
931.70
1417.35
1341.16
1720.13
2121.92
2051.36
1490.50
1300.22
1764.45
1451.64
1382.03
1183.32
1379.22
1540.81
1748.79
1830.30
1069.51
678.60
2045.14
3462.21
2601.90
2101.32
1932.69
1571.99
1263.19
1209.06
1456.37
1233.41
1174.15
1471.85
1817.85
1603.03
1649.50
2141.48
2173.36
1437.57
575.18
1138.55
1193.47
1159.75
906.60
2005.35
1255.60
1410.28
1040.57
1625.74
1396.39
672.79
488.15
487.85
648.89
447.28
1884.94
1191.52
999.70
1263.80
1039.10
1090.68
1277.60
1288.70
1206.22
1677.88
1745.25
2525.55
508.61
888.19
1127.77
653.19
527.46
886.01
1536.60
1470.24
1442.17
1377.86
3098.72
1609.66
1953.85
1923.19
1688.28
1494.45
634.93
873.20
1262.20
930.32
440.73
2677.89
928.82
1364.64
1187.13
1301.13
1066.22
1391.65
1263.42
1493.20
1374.85
1194.96
3328.96
621.45
644.07
759.35
1138.59
1441.43
1171.95
1100.90
1437.27
1446.72
1356.02
1240.32
1212.27
1399.70
1330.07
1389.60
1380.76
733.95
832.39
1129.84
893.44
1089.87
747.54
1077.08
1253.45
1190.68
1338.76
1520.66
1518.40
1382.75
1389.70
1303.42
1287.04
1281.47
692.38
882.35
807.95
972.41
1193.97
1361.55
1215.04
1793.19
1518.55
1335.82
962.31
1249.69
1569.87
1278.41
1439.28
1311.22
1199.96
705.11
966.43
1164.35
1140.03
732.86
642.41
889.41
1716.51
1664.98
1590.75
1548.53
1441.36
1282.79
1480.66
1646.62
1813.68
1291.78
1272.77
1417.03
1609.48
1846.55
1631.96
1432.51
1753.58
1428.11
1249.49
1185.87
1157.55
1198.55
1228.62
1325.08
1480.53
1449.23
583.24
872.08
732.48
505.65
969.25
1353.68
1421.98
1823.11
1871.33
1691.83
1024.08
1085.73
1243.33
1530.58
1370.10
1470.58
1445.03
895.24
999.71
1375.34
1421.27
1394.13
1229.01
1354.71
1824.15
1549.46
1145.82
1247.41
1167.67
1647.51
1953.40
2584.00
2341.28
1195.72
560.29
1806.98
2876.38
2915.12
2637.28
1971.82
1343.78
1181.17
1058.93
1168.17
1080.92
1136.47
1283.37
1520.57
1055.64
1754.45
1213.58
1324.50
1476.10
1345.69
1338.06
1199.14
785.90
1455.49
1318.29
1319.75
1373.63
1294.14
1402.52
1304.03
1524.30
1773.73
1037.07
554.45
524.39
428.79
693.90
1297.84
472.39
665.44
1028.25
1348.53
1213.22
1088.26
1237.14
1293.16
1433.60
1559.79
1438.14
860.14
829.44
612.36
717.51
570.75
663.02
565.54
1133.16
1349.81
1214.16
1838.16
1068.98
1576.08
1350.22
1264.79
1295.10
1584.93
915.45
749.33
554.06
602.99
1250.20
946.64
726.27
1322.84
1422.38
1322.75
967.32
1240.76
1222.63
1330.19
1210.77
2080.41
1013.76
602.22
792.93
688.57
781.77
1060.30
1208.57
1115.82
1509.44
1650.94
2026.11
1180.85
1378.80
1294.24
1249.34
1296.69
1308.81
708.23
721.40
518.67
429.75
1530.95
653.90
627.58
1158.91
1263.55
1288.15
1056.45
1297.44
1364.71
1105.38
1316.54
2790.89
1474.77
642.40
547.28
584.02
784.00
803.39
925.78
1377.80
2177.11
2732.08
3141.43
2628.81
1935.25
1373.53
1439.82
1643.31
1670.55
1161.03
644.88
509.23
516.72
468.31
583.34
461.31
983.87
1448.96
1317.19
1194.90
1102.34
1306.97
1139.21
1262.89
1146.04
2969.30
946.71
1146.58
1567.71
1649.41
1191.68
640.20
789.02
1193.07
1204.67
1307.65
3843.68
1021.49
1319.61
1219.36
1516.14
1579.58
1701.69
1321.18
1320.08
1008.85
747.63
2660.60
771.84
685.79
1362.39
1745.12
1484.85
1058.56
1195.19
1220.42
1303.07
1200.32
1742.36
1044.24
595.12
654.61
558.31
591.33
695.14
916.23
1139.67
1587.04
1656.96
1254.45
1145.47
1164.43
1390.99
1501.11
1357.85
1288.96
580.73
557.62
454.44
557.02
768.13
1031.29
810.29
1226.97
1325.22
1381.49
1170.55
1094.12
1351.31
1315.27
1132.42
1247.97
3843.67
745.48
857.11
981.43
1321.21
1137.27
1121.50
1123.10
1718.73
1533.62
1775.75
2866.41
1455.56
1490.81
1787.10
1897.38
1659.59
1118.96
1159.61
924.19
584.88
433.08
2766.05
720.89
760.12
1184.26
1146.97
1181.77
1015.89
1045.02
1155.34
1259.17
1437.88
1218.37
619.00
753.27
573.00
711.22
692.99
572.15
586.17
1202.68
1709.72
1803.34
1665.91
2008.33
1684.87
1345.97
1354.60
1776.89
1485.38
627.18
502.71
540.30
1165.62
552.53
1974.41
1094.79
1424.90
1148.69
1364.51
1243.85
1683.65
1320.88
1287.54
1122.82
1292.38
3145.03
959.23
566.85
810.91
1158.23
1278.28
967.00
777.86
1279.28
1791.42
1488.50
1253.21
1284.35
1223.74
1104.84
1606.48
1435.80
1120.18
992.67
993.11
557.83
527.15
1018.93
1189.07
1206.89
1425.22
1410.08
1234.67
1010.04
1244.13
1178.43
1231.60
1332.25
1353.16
871.70
1393.94
1511.53
1342.88
851.14
598.87
548.66
1816.61
2503.34
2940.09
2478.99
2527.04
1732.11
1432.82
1139.05
1449.24
1284.92
687.35
687.38
1175.09
1369.44
921.18
1008.95
2391.13
2697.40
2116.98
1437.53
1200.62
1290.28
1314.54
1284.77
1374.82
1311.05
1487.81
2014.01
2127.90
2255.46
1905.71
1473.73
1492.37
1626.37
1552.34
1239.76
1102.05
1200.05
1298.46
1988.55
2214.44
1476.60
1390.43
666.51
606.01
585.15
753.83
660.23
908.44
358.70
1290.82
1096.23
1197.99
1097.68
1073.61
1219.12
1240.58
1242.80
1337.24
1341.35
668.89
983.94
881.59
649.26
733.49
982.37
847.45
1318.29
1514.37
1507.77
3249.62
1742.68
1815.12
1501.40
1458.83
1293.08
796.79
622.55
850.53
599.15
467.59
679.78
934.98
947.98
1127.32
1205.81
1122.90
1135.05
1248.51
1184.51
1351.35
1217.65
1412.76
1746.53
790.81
715.04
659.39
474.76
955.56
1080.10
2017.30
1844.42
1459.01
880.82
1194.89
1150.65
1249.65
1217.00
1292.46
1118.16
795.95
669.93
1002.62
917.22
1013.55
1137.84
1369.49
1244.25
1432.99
1446.02
1422.72
1831.41
1676.29
1253.88
1409.76
1755.18
1370.29
939.90
432.72
537.96
886.50
440.01
717.96
1242.94
1721.39
1669.97
1293.10
1355.56
1938.44
1595.80
1596.36
1480.33
1379.15
684.02
714.34
710.45
612.03
762.37
736.85
2720.30
1286.03
1276.12
1191.80
1213.82
1585.53
1134.93
1141.06
1465.20
1498.46
1253.37
367.97
703.67
1844.42
2794.58
3167.14
2445.29
2046.26
2640.71
2273.52
1418.58
1266.42
2612.06
3042.29
2959.30
2168.08
1426.87
953.72
765.83
603.33
608.66
636.60
787.83
549.82
1332.19
1132.25
1300.43
1188.13
1131.81
1337.43
1199.21
1236.07
1222.48
1289.41
832.78
1861.60
1476.91
1726.99
1495.86
1141.20
827.93
1387.88
1501.78
1362.30
1041.81
1182.03
1968.90
1500.28
1431.08
1269.77
1283.13
641.35
583.73
620.10
600.05
715.38
1015.73
2588.89
1619.83
1194.44
1154.81
1176.59
1016.54
1260.61
1207.92
1293.02
1312.48
790.89
2070.66
1360.22
898.45
489.29
763.89
641.13
1242.65
1406.85
1523.79
1617.61
1455.80
1618.56
1510.37
1288.18
1414.00
1368.86
742.22
638.30
625.70
624.98
572.86
544.04
726.58
1936.00
1383.68
1304.81
1280.93
1170.97
1302.72
1320.27
1413.27
1449.44
1130.95
585.50
2047.19
845.18
1135.80
1152.70
1206.93
1322.29
1365.43
1674.76
1816.46
2013.79
1911.79
2850.87
1842.77
1649.76
1303.17
860.51
837.83
912.47
822.39
635.07
549.31
498.36
929.94
1280.60
1113.64
1057.37
1192.09
1542.50
1734.85
1299.26
1338.67
1160.22
660.82
562.44
790.32
816.91
1167.58
1640.64
1509.44
1692.56
1300.81
1461.79
1161.77
1195.65
1411.84
1952.28
1591.46
1573.10
1377.15
1026.49
1181.64
927.70
588.61
637.50
1008.76
1327.07
1940.81
1081.29
1208.05
1126.98
1244.75
1507.96
1522.44
1698.48
1818.93
1050.51
864.38
1598.62
923.94
1111.08
877.53
838.95
1189.80
1321.41
1210.36
1143.67
1113.84
1419.19
1688.69
1319.69
1297.82
1369.61
575.47
778.97
412.02
434.83
541.59
1307.55
2107.66
2596.58
2006.27
1153.64
1168.04
1453.78
1458.29
1384.10
1209.46
1395.84
1139.14
881.52
1089.92
1342.30
1309.52
1474.97
1352.12
1142.07
1525.56
1465.65
1063.13
1205.37
1485.15
1675.86
1642.79
1755.32
1657.32
1369.28
968.80
992.29
839.71
625.87
700.72
1013.10
1943.02
2085.52
1495.54
1119.62
1307.41
1278.63
1253.56
1455.90
1028.32
1247.55
613.07
848.21
630.94
500.69
515.14
831.92
647.27
1334.44
1085.04
1389.12
895.57
1371.85
1823.45
2113.10
2267.98
2109.49
1650.96
825.22
731.30
683.34
734.71
1101.25
820.73
843.04
2072.27
1373.08
1004.05
1088.30
1199.89
1535.80
1179.01
1275.59
1281.88
1040.30
1091.44
3044.28
710.62
805.80
768.82
1374.83
1914.21
2438.07
2421.19
2078.91
2102.35
2191.48
1944.12
1618.59
1208.48
1352.14
567.19
591.74
608.28
484.08
748.59
593.35
563.82
1121.60
1789.43
1277.34
1012.23
1231.28
1379.62
1322.43
1271.83
1385.00
1256.68
860.71
692.12
1674.25
1052.16
661.54
721.37
647.65
1494.52
1401.22
1403.01
1208.91
1411.44
1571.46
2905.16
1546.93
1495.69
911.45
740.93
948.82
636.30
731.30
485.13
667.16
1243.64
1216.27
1327.66
1291.28
982.99
1174.84
1189.59
1504.96
1257.98
1306.87
1283.25
1497.68
1406.89
1580.23
1644.75
1721.97
1484.56
1686.51
1227.00
1063.16
1540.22
1266.57
1246.88
1397.14
1595.00
1454.16
1496.58
1020.64
353.08
947.26
904.45
1003.96
1021.45
906.77
1369.07
2012.01
1149.75
1145.83
1133.16
1479.89
1296.27
1416.35
1533.87
1965.52
1490.55
665.76
1263.06
392.38
557.73
795.71
1057.96
1229.35
1205.11
1696.03
1805.77
1570.45
1466.24
2121.39
1211.37
1307.08
577.07
460.97
446.73
799.29
618.51
809.33
767.45
1366.49
1039.48
1185.02
1127.43
1157.54
1162.55
1225.19
1253.31
1243.54
1188.20
616.29
461.23
557.33
756.23
1089.49
1147.27
847.92
1263.82
1492.61
1634.51
1413.99
1340.79
1257.95
1359.08
1639.98
1137.43
796.80
511.20
702.40
652.21
565.53
776.57
815.06
1140.54
1247.18
1225.44
1275.08
1135.83
1203.09
1059.39
1174.98
1321.72
1255.72
651.22
859.04
909.94
1042.35
1169.18
1164.74
1144.58
1761.69
1907.08
1849.38
1355.39
1391.86
1454.71
1318.45
1341.95
1441.24
1227.93
531.86
791.19
524.23
348.21
560.57
377.70
860.61
1209.84
1511.42
2953.76
1063.56
1077.69
1348.45
1275.54
1319.89
1210.21
809.97
508.93
584.71
995.00
2486.90
1139.31
1357.72
1883.01
2132.38
2084.70
1557.38
1354.35
1641.19
1561.13
1556.78
1887.68
2139.38
2078.46
2004.16
971.39
1281.41
1976.45
1931.36
2858.84
3921.95
3028.65
1677.23
1229.78
1364.32
1337.52
1145.47
1335.03
1207.32
1371.25
819.29
831.58
791.77
1272.71
1531.55
1221.45
1146.72
1668.29
1515.04
1319.29
1021.03
984.19
1203.85
1304.69
1609.89
1548.16
923.13
583.35
619.53
733.51
1052.02
1294.16
924.28
1037.74
2042.91
2532.64
2191.00
1414.62
1216.30
1138.26
1395.65
1369.08
1361.35
805.33
688.13
678.88
1202.00
1583.02
1859.89
2077.83
2468.99
1772.30
1487.33
859.32
873.78
1130.52
1250.34
1009.94
1495.40
1233.96
476.46
530.89
748.08
741.56
721.72
649.27
744.91
1148.09
1235.72
1781.34
1208.97
1284.26
1339.20
1417.91
1604.37
1419.24
914.81
585.52
700.25
615.94
1868.99
950.87
593.51
1021.08
1168.33
1729.93
1576.74
1162.32
1446.31
1561.97
1351.95
1276.74
1280.09
737.92
602.99
738.29
547.65
329.49
629.52
896.74
1208.95
1028.37
1063.69
2973.09
1207.25
1159.76
1101.26
1216.87
1432.27
1244.74
572.26
633.52
575.67
816.05
2191.79
868.18
831.04
1426.35
1776.62
1828.54
1308.14
1330.49
1181.16
1275.94
1084.19
1301.13
993.23
549.74
821.23
701.66
825.82
447.50
660.44
900.34
1188.45
1201.77
1161.60
2911.70
1368.63
1296.75
1240.57
1204.40
1214.14
689.20
936.55
708.54
1146.68
1359.19
3301.07
1281.14
1451.46
1483.28
1333.53
942.00
891.49
1324.98
1097.02
1200.62
1117.02
2686.39
592.98
598.30
468.49
765.61
566.99
900.03
1133.12
1286.52
1132.50
1531.58
1460.30
1572.13
1362.28
1149.08
1304.11
1366.81
804.44
1011.35
1466.48
1078.83
796.50
816.01
1728.07
1333.19
1464.81
1385.80
1195.49
1168.33
1434.47
1580.12
1263.25
1139.97
1188.76
2292.48
907.96
524.43
1016.94
1001.67
913.99
864.79
1170.42
1257.13
1187.30
908.72
1151.94
998.40
1182.13
1398.11
1505.63
1325.11
801.95
923.20
940.66
743.99
508.39
409.70
662.08
1113.18
1202.32
1194.42
1055.60
1701.89
1873.27
1728.58
1585.03
1145.94
815.58
1672.85
866.35
1321.28
1419.07
983.26
899.46
968.06
1582.07
1767.10
1732.14
1216.00
2770.36
1175.36
1114.46
1121.85
1216.66
567.97
539.70
618.83
590.54
867.70
911.48
1138.78
2273.67
2014.83
2060.56
1106.31
1140.66
1110.91
1255.87
1135.76
1397.39
1049.54
770.02
1058.37
1253.11
864.50
582.44
520.81
696.23
1321.64
1368.44
1207.33
954.00
1240.86
2031.31
1442.48
1521.71
1540.94
882.86
516.36
698.55
372.60
480.44
814.83
865.93
1270.13
1478.18
1091.83
1090.21
1009.38
1109.61
1288.00
1452.58
1637.66
1816.15
1185.10
690.53
544.61
391.79
533.05
522.39
518.94
1254.36
1170.55
1376.38
1146.21
803.70
1046.42
2110.64
1347.63
1470.89
1313.70
583.84
567.52
743.82
984.95
985.26
671.00
831.30
1685.86
1939.92
2156.61
1796.45
1481.19
1352.05
1304.95
1380.94
1398.26
1000.87
648.34
727.37
752.52
470.90
671.83
545.93
953.68
1035.35
1187.29
962.13
773.36
974.66
1177.77
2905.08
1265.36
1375.65
1477.96
1525.97
1270.27
1327.93
1243.81
1085.48
1046.34
1483.64
3040.10
1259.65
820.01
1192.70
1201.03
1039.55
1162.44
1198.81
1395.79
820.42
667.21
3229.47
559.25
673.11
473.53
527.26
1163.08
1052.99
961.34
962.37
1224.08
1148.19
1063.04
1124.64
1186.43
1077.67
461.31
803.69
755.93
834.90
1106.19
1291.12
1297.43
1437.34
1842.47
1650.49
1527.75
1652.17
1409.21
1413.18
1195.82
1266.19
716.48
455.97
471.31
1240.77
474.77
472.21
564.02
1247.96
1138.70
1262.92
1109.04
991.74
1198.27
1582.13
2382.02
1637.40
1345.24
915.34
663.56
467.34
819.98
706.17
545.73
489.17
1260.43
1605.67
1985.52
1356.21
1225.19
1505.35
1295.62
1373.29
1301.59
762.97
426.29
534.80
1037.61
2208.10
374.70
880.86
1393.02
1271.46
1717.03
1757.40
1442.91
1206.13
1359.97
1453.50
1828.09
1722.27
1000.48
491.05
353.66
506.63
641.29
680.34
969.80
1749.45
1802.70
1615.94
1400.51
968.18
1300.04
1277.77
1343.15
1583.34
1480.98
1087.74
684.91
610.51
485.27
1434.90
582.61
575.25
1058.88
1148.10
1161.46
1100.86
1288.03
1383.08
1321.58
1497.98
3149.26
1204.18
907.33
765.96
838.97
903.24
741.09
968.31
1242.60
2099.55
2390.14
1793.32
1028.78
1259.99
955.63
1291.71
1228.20
1548.97
1224.41
1706.84
1825.98
1395.36
398.62
1278.82
1839.68
2654.67
3044.95
3117.21
2406.26
1443.68
1168.97
1676.39
1750.51
1612.66
1394.72
673.02
503.71
560.09
612.62
518.69
680.32
1059.19
1620.60
1609.72
1486.58
1862.52
1452.03
1559.95
1299.48
1460.10
1324.48
838.26
587.46
772.13
720.35
626.14
1664.11
454.59
1241.31
1428.79
1280.37
1307.35
1133.94
1376.19
1484.29
1595.97
1637.87
1616.27
997.04
1181.54
945.49
557.92
637.11
687.46
762.09
1371.83
1439.76
1581.63
1170.66
1466.89
1838.19
2162.72
1640.26
1595.06
1391.19
800.86
447.45
548.47
463.55
350.14
1435.74
845.61
1242.15
1090.10
1148.09
1158.69
1090.72
1255.96
1192.41
1336.38
1108.62
2953.21
587.26
761.15
795.34
690.16
334.33
558.18
867.35
1331.79
1600.06
1826.21
1336.96
1853.81
1277.41
1402.91
1293.44
1426.60
783.52
564.82
642.73
588.27
574.04
685.09
3213.32
1146.75
1157.43
1028.80
957.20
1123.41
962.02
1380.76
1147.83
1367.20
1285.26
1893.21
2530.76
2688.43
2954.23
2368.05
971.27
555.04
1026.48
1250.58
1106.34
984.15
981.29
1375.53
1127.10
1054.55
1137.75
1285.51
1242.67
1171.19
507.72
1427.73
1822.82
1663.70
1258.35
1272.62
1261.42
1291.10
1173.26
1118.74
1186.65
1215.38
1148.12
1437.33
843.48
1186.69
1178.10
1341.92
1377.62
1344.64
1217.05
1470.46
1473.15
1702.32
1761.86
1919.79
1794.70
1317.20
1184.01
1337.75
1210.94
904.55
1653.82
1381.81
405.77
636.06
357.22
694.04
1164.33
1139.67
1189.34
1135.39
1177.04
1287.67
1029.80
1448.96
1414.99
1493.32
1689.42
1512.97
1175.38
735.04
674.74
718.04
854.20
1737.32
1649.77
1341.80
938.88
1417.40
1407.83
1189.50
1274.74
1387.05
954.33
1434.75
1194.30
984.67
919.77
702.53
858.95
1203.05
1411.20
1245.36
1059.34
1159.70
1375.31
1255.75
1324.51
1205.30
1305.70
1947.38
2556.28
3206.43
2633.59
1724.07
598.80
1097.48
1280.14
1280.51
1411.56
1327.75
1347.40
1304.02
1412.07
1321.82
1169.47
934.04
767.53
731.20
442.96
737.59
551.06
1629.19
869.45
1315.71
1813.64
2476.29
2662.12
2009.96
1324.42
1084.97
2273.93
3094.05
3750.82
2371.71
1492.43
594.53
868.22
1169.59
1769.50
2283.93
1987.16
2255.31
2272.06
2957.64
2627.73
2674.08
2195.21
1665.74
1345.86
639.61
1013.39
1204.62
975.68
685.76
1381.50
1698.11
2101.38
1633.31
1317.39
1048.82
2587.40
3939.10
3851.85
3101.57
1755.94
1791.14
548.04
1341.07
1935.04
2253.66
2020.79
1493.65
1441.47
1405.10
1552.06
1615.43
2205.27
2079.89
2624.55
2635.10
2317.06
1696.24
503.63
1323.61
2674.00
3276.70
2260.07
3303.68
1333.72
1465.95
1477.21
1132.02
1159.69
1301.15
1137.71
1579.05
2006.69
2065.00
2994.47
979.84
870.63
861.47
639.22
706.45
1178.26
1084.20
1240.97
1315.11
1668.92
2818.95
1961.74
1967.10
1673.24
1349.66
1347.32
762.12
515.46
579.04
445.09
625.97
3259.37
786.56
1229.31
1163.82
1278.46
1172.27
1134.46
1148.01
1361.47
1372.87
1113.94
2171.81
842.83
831.71
312.84
958.68
1236.00
1316.97
1096.72
1585.39
1663.56
1534.53
1397.77
1209.09
1530.63
1434.20
1389.41
1356.72
1514.62
972.13
1023.01
901.27
741.59
519.11
434.93
547.31
1359.74
1191.96
1358.17
1135.39
1162.49
1290.24
1641.80
2002.04
1954.29
1102.27
695.62
912.73
617.86
505.51
630.57
702.63
1161.89
1275.78
1255.14
1304.11
1288.15
1649.63
1498.33
1745.34
1999.41
1647.95
710.89
628.08
323.29
607.63
754.05
1410.57
1761.29
1613.51
1241.42
1437.56
1344.64
1641.87
1840.66
1594.50
1589.89
1271.08
1398.81
500.23
547.94
956.19
1117.15
654.76
728.16
536.68
1242.34
1186.12
1630.41
1982.04
2545.18
3303.26
3662.18
3409.49
2568.29
1263.39
1066.81
1670.03
2071.89
2142.67
2000.60
1028.14
1370.68
1276.30
1356.65
949.54
1197.15
1349.60
1224.17
1212.82
1352.44
1328.71
706.20
1040.28
924.08
1265.33
1371.69
1818.85
1506.92
2453.68
3362.22
3909.43
3875.93
3904.57
3067.34
1437.68
2347.07
3424.42
3926.28
3289.18
2630.72
3190.92
2293.42
697.56
775.69
1007.17
1342.17
1236.23
1229.32
1113.04
1382.44
1132.93
1279.58
1281.60
1454.56
1327.88
892.56
730.37
584.41
521.47
730.64
743.01
1266.59
1534.67
1592.89
1917.57
1535.23
1919.81
1421.93
1335.52
1632.27
1527.02
579.33
521.73
358.78
465.37
928.32
514.98
558.08
1423.73
1403.20
1395.24
1300.62
1265.22
1620.32
1837.55
1710.27
2150.90
1384.01
503.67
382.95
491.55
680.86
1093.67
1101.14
1029.16
1428.06
1398.57
1773.70
1276.28
1636.50
1489.76
1306.69
1225.85
1200.14
1304.53
805.96
958.67
608.57
1683.31
823.47
587.94
1456.16
1797.98
1494.61
1349.72
1081.39
1225.94
1538.29
1673.41
2065.55
1406.83
577.92
663.22
552.63
574.69
698.28
505.66
643.81
1476.48
1387.87
1651.16
1473.87
1506.77
1332.72
1266.67
1276.76
1650.29
1485.15
607.06
511.52
443.59
501.17
881.15
450.78
973.14
1176.91
1341.66
1330.18
1148.75
1173.70
1344.26
1440.95
1539.52
1411.16
1261.49
581.12
628.09
530.62
590.72
482.76
939.54
1540.80
2004.65
2701.21
2863.44
2314.43
2102.72
1711.41
1696.68
1551.42
1493.18
520.52
597.79
718.00
668.64
577.84
1871.41
622.50
1206.84
1083.65
1320.33
1327.36
2310.08
1587.62
1099.14
1335.29
2024.52
2093.13
1513.23
957.85
699.30
269.80
758.42
889.50
763.87
1434.84
1362.42
1476.76
1279.11
1748.13
1494.62
1248.54
1650.66
1557.59
1214.81
787.68
798.06
1489.04
1417.25
713.18
1580.42
1123.78
1413.49
2328.61
2413.35
1643.78
1054.10
1321.19
1353.55
1373.94
1397.70
1481.54
1039.42
846.31
589.46
399.00
474.08
658.53
1195.71
1575.70
1486.63
1486.62
2988.48
1832.17
1773.87
1415.10
1389.13
1199.41
703.69
727.52
614.89
430.15
560.30
786.76
818.12
1217.57
1134.69
1172.12
1174.09
1360.82
1160.58
1294.75
1355.74
1321.53
1146.83
1297.04
1118.19
1342.23
1327.16
1235.80
1344.60
1750.20
1709.45
1658.13
2353.20
2615.73
3237.88
3401.00
2269.34
1290.06
1382.55
1196.36
1669.58
1320.75
1260.53
1180.25
665.86
1284.76
1273.97
1352.42
1622.02
1320.47
1312.41
1248.83
1965.54
1612.47
1221.66
1220.88
1946.88
804.02
889.97
531.93
613.07
652.60
964.72
2061.19
1889.07
1826.88
1403.38
2210.77
1735.01
1324.45
1378.65
1363.26
1346.86
616.76
574.26
467.95
407.93
428.31
2104.85
1487.07
1327.32
1300.25
1271.35
1110.25
1255.41
1339.04
1608.05
1454.20
1420.69
2527.32
1326.35
1057.75
995.79
739.56
983.88
681.50
1435.60
1289.27
1235.79
1187.56
3268.99
1236.30
1334.33
1186.60
1724.11
1313.24
704.94
524.26
500.95
516.10
458.97
3235.07
806.14
1263.72
1321.65
1159.75
1241.93
1058.88
1429.66
1621.02
1683.69
1496.13
3696.98
1108.75
1005.51
535.34
446.53
488.21
521.29
1602.41
2632.63
2511.42
2089.99
1695.03
1427.83
1347.53
1150.57
1378.57
1342.15
860.23
660.95
428.14
648.77
504.37
787.81
741.86
1181.06
1379.73
1345.03
1231.71
1309.00
1604.75
1392.25
1275.58
1339.95
1252.61
1495.22
633.96
610.52
603.25
1283.25
1632.42
1498.30
1735.80
1456.46
1219.97
1172.03
2792.29
1228.95
1284.80
1104.80
1178.32
1351.93
868.10
1112.08
923.38
1100.72
1247.82
2515.70
1359.38
1492.38
1393.74
1461.62
1199.71
1421.70
1297.76
1366.55
1320.66
1419.42
2994.59
810.75
889.66
1140.68
852.42
722.72
735.23
1238.42
1424.50
1591.94
1503.53
3359.34
1464.24
1425.63
1351.35
1177.64
1385.31
870.94
995.17
1114.83
929.17
516.95
1258.27
1534.16
2693.10
2451.95
1605.29
1079.26
1288.75
1414.37
1360.72
1264.18
1410.96
1174.98
552.39
543.57
1049.92
1347.91
1644.67
2465.43
2711.80
2945.77
3321.80
2913.32
2459.09
2995.32
3021.91
2043.26
1130.89
1896.09
2754.56
3382.72
2944.02
2701.94
2368.02
2141.76
1757.45
1693.83
1269.65
1326.85
1257.93
1262.53
1129.22
1398.74
1673.75
1472.04
1402.78
1053.31
874.36
996.39
1111.88
1112.47
1283.68
1599.70
1814.12
1830.96
1633.92
1359.08
1222.37
1453.03
1180.83
1267.72
1238.75
1301.29
616.64
929.82
702.71
717.35
551.24
499.07
1078.78
1533.58
1553.91
1330.34
1327.98
1424.10
1342.08
1364.41
1777.84
2026.55
1414.91
1100.11
497.21
1228.75
1724.15
1506.36
1194.54
1224.19
1365.08
1542.93
1316.87
1764.16
1674.16
1846.90
1770.77
1624.07
1498.41
631.13
599.63
439.19
676.66
518.80
625.96
931.73
1160.39
1248.40
1524.43
1348.38
1282.29
1514.44
1511.55
1248.56
1160.36
1347.47
1262.32
1500.22
1433.85
1557.24
1402.64
1238.20
1331.77
1469.21
2035.98
1942.73
1667.67
1817.48
1379.28
1460.76
1470.18
1642.32
1129.49
527.83
957.35
1561.44
1772.39
1786.27
1201.50
1498.53
1325.14
1322.02
1312.65
1543.76
1287.74
1492.13
1147.27
1248.61
1705.03
597.92
558.31
817.39
1221.78
1393.50
2156.58
2364.41
2464.52
1951.52
1353.17
1272.86
1427.22
1361.96
1137.45
1339.47
1510.10
1521.71
1038.64
676.80
571.18
949.38
1473.10
583.76
1232.81
1342.48
1349.81
1450.63
1244.19
1262.97
1272.04
1279.10
1287.97
2325.16
723.48
620.34
767.22
1116.00
1010.68
1326.55
936.42
1466.40
1270.94
1457.25
1615.59
1395.77
1325.51
1522.32
1236.44
1270.95
1608.01
1071.64
986.44
954.34
871.33
1774.17
650.06
603.54
1127.98
1327.43
1096.26
1212.26
1005.85
1470.92
1615.58
1672.89
2310.97
1417.44
861.93
1261.77
1490.86
1468.32
710.16
623.63
999.38
2103.51
2106.96
2565.26
1739.01
1471.90
1295.33
1252.09
1413.80
1437.86
876.13
640.83
536.62
622.29
2233.18
573.63
891.45
1391.61
1647.05
1270.77
1235.06
1487.21
1133.89
1298.76
1235.58
3171.29
1249.57
959.01
1079.19
1103.41
1000.85
959.80
628.32
548.05
1477.21
1598.22
3147.01
1268.56
1380.89
1579.99
1682.38
1586.93
1545.92
1671.47
683.44
750.25
611.21
3002.77
346.53
660.34
1253.42
1432.78
1369.86
1520.26
1250.04
1248.36
1121.25
1408.24
2211.78
1302.75
711.28
508.15
393.93
991.43
1551.90
1886.45
1648.93
2460.29
2187.64
2392.81
1404.29
1348.27
1461.51
1195.13
1211.51
1437.36
1225.22
758.73
667.64
946.36
1029.22
869.72
580.36
670.50
1083.48
1366.05
1282.33
1289.19
1098.03
1553.25
1823.82
1767.01
1488.41
1374.48
507.50
671.88
312.36
512.16
719.45
1086.60
1949.61
3095.90
2958.69
2017.36
1178.50
1376.67
1267.09
1381.95
1106.22
1388.15
685.58
660.86
614.35
372.94
520.10
830.46
846.40
1421.55
1367.91
1350.00
1204.04
1331.79
1151.21
1313.55
1271.18
1451.12
1447.21
1387.42
1395.30
1119.48
625.99
609.59
745.09
937.34
1733.68
1705.73
1467.88
1363.74
1245.76
1307.02
1202.71
1397.92
1424.90
1636.71
854.17
1195.25
1055.33
1288.55
1033.66
702.98
1388.53
1381.45
1305.90
1413.60
1312.34
1371.78
1329.75
1558.34
1617.55
1620.21
845.17
549.47
405.91
668.18
572.25
490.87
697.31
2285.47
2816.64
3272.20
2555.14
1802.29
1158.61
1466.51
1891.16
2228.23
1875.40
1172.16
536.85
832.81
1145.88
956.69
509.33
667.26
1108.95
1361.19
1251.54
1301.80
1257.12
1316.89
1196.96
2137.93
1165.24
1294.80
535.50
708.70
772.75
983.77
996.34
1075.11
1952.24
2354.79
2585.74
1830.54
1126.02
1377.23
1408.53
1333.05
1245.09
1400.33
691.99
904.79
920.72
1972.42
526.38
832.49
688.56
1319.26
1300.33
1370.97
1380.01
1447.46
1270.26
1399.67
1530.73
1930.11
1763.35
1683.72
1716.03
539.66
728.64
1187.64
1117.63
971.00
1325.61
1667.42
1425.79
1275.41
967.00
1398.57
1226.82
1364.39
1576.06
1631.16
794.62
891.53
506.92
750.16
760.22
578.26
1111.51
1295.72
1094.14
1076.41
1558.56
2007.59
1704.65
1395.16
1947.31
1410.69
999.02
720.17
532.44
481.49
520.48
865.00
723.61
1639.61
1545.95
1657.44
1890.68
1709.42
1919.66
1981.46
1708.15
1535.29
1341.45
698.56
427.34
418.25
643.48
547.13
632.75
763.12
1528.80
1516.40
1400.88
1432.73
1283.88
1413.49
1284.73
1497.00
2750.25
1450.35
1159.32
1534.07
1340.46
1399.40
1018.53
691.39
1104.81
1629.70
1184.39
3408.26
1062.84
1293.67
1473.22
1701.68
1793.63
1770.84
801.21
701.39
1181.69
1125.65
3436.23
440.71
484.99
1358.53
1248.55
1318.92
1109.38
1072.36
1212.53
1506.95
1399.09
2041.94
1330.62
543.01
744.25
1007.77
957.98
1097.88
683.48
601.40
1338.25
1533.01
2170.24
2839.24
2735.09
2346.98
1674.19
1288.17
1276.74
1428.50
1346.62
817.16
577.40
417.12
623.31
687.35
1016.66
1405.27
1660.63
1518.29
1270.01
1272.62
1862.46
3217.46
3159.89
2221.32
1467.37
524.94
439.73
639.42
619.64
1302.16
1427.97
2368.53
1961.21
2307.63
2160.20
1960.76
1479.16
1403.65
1342.19
1329.27
1453.92
681.18
742.37
487.14
518.56
1542.49
938.37
716.80
1408.23
1450.74
1699.19
1475.06
1297.01
1163.38
1280.60
1401.67
1707.93
1622.52
897.60
647.19
681.34
1038.64
1074.12
1025.98
1367.35
1591.69
1553.64
1542.64
1345.28
1617.61
1247.10
1482.60
1247.32
1282.68
734.69
599.89
406.32
884.25
1200.73
1321.96
1055.03
1321.70
1166.83
1486.04
1651.10
1484.10
1302.62
1501.64
1085.31
1318.85
1353.49
746.32
775.66
773.20
702.90
734.69
1084.16
953.14
1786.67
1858.58
1842.82
2235.91
1373.47
1475.20
1464.53
1579.86
1506.05
1760.80
1440.62
1603.25
1609.77
1453.24
1371.63
832.46
1214.32
1652.77
1752.10
2068.13
1891.33
1918.16
1316.00
1507.33
1324.29
2383.78
1192.73
1621.88
2139.32
2673.01
2152.98
1491.61
789.27
1571.71
1364.88
1518.08
1805.48
1198.71
1202.57
1312.45
1246.24
1368.55
1143.44
737.60
516.13
566.63
639.01
1637.62
902.63
1016.55
967.56
1417.69
1196.38
1155.65
1345.58
1158.64
1244.71
1269.43
2610.15
1422.89
720.76
888.75
1139.57
1066.33
1407.70
1509.53
1466.19
1923.73
1818.42
2810.18
1494.76
2136.17
3394.40
3690.56
2335.35
1549.47
1617.22
2615.77
3119.45
3786.25
3893.35
1190.47
505.09
1474.24
1183.98
1311.35
1315.95
1595.78
1536.91
1298.69
1347.21
3804.13
1353.23
813.36
448.16
634.36
885.78
1015.99
903.06
887.18
1513.72
1352.58
3301.20
1242.21
1340.62
1780.35
2168.81
2031.34
1717.92
1403.28
435.72
551.47
1006.09
1305.70
471.65
645.22
1125.58
1228.17
1181.70
1190.11
1281.28
1320.83
1428.52
1326.83
1893.03
2111.20
1880.13
1341.12
1163.48
602.59
710.35
517.25
737.28
1321.48
1434.05
1595.39
1773.27
1856.69
1584.98
1599.83
1596.47
1501.92
1337.49
618.60
1339.73
627.67
718.05
1516.45
1761.73
1335.56
1380.39
1452.88
2981.31
3015.33
2651.07
1881.12
1530.86
1338.43
1352.63
1251.27
963.67
1362.69
1158.40
1070.41
851.30
686.90
607.04
1909.77
2149.85
2255.42
1597.95
2017.05
2023.29
1921.30
1469.72
1529.95
714.32
740.24
1318.71
1614.14
1466.51
897.49
735.53
2331.36
2756.79
2589.84
1994.37
1454.71
1325.23
1258.95
1346.73
1394.65
1203.02
928.09
1041.03
1301.21
1612.83
1436.68
869.90
628.50
975.41
1260.99
1314.84
1715.70
1661.14
1689.41
1960.55
1897.60
1284.95
1397.66
574.33
778.02
865.70
1089.23
627.98
801.11
1130.02
1713.89
1769.56
2020.50
1395.28
1489.99
1188.71
1472.88
1707.38
1383.82
1164.92
919.70
775.76
666.95
771.80
1208.35
1642.10
2833.94
3008.98
2747.92
2081.78
1469.94
1396.13
1424.73
1454.61
1432.60
1495.90
747.67
643.25
546.99
908.70
907.79
577.15
772.44
1431.61
1583.28
2236.83
1975.71
1435.79
1503.83
2746.24
3848.44
3930.09
3815.51
3852.79
3854.38
824.67
3856.70
3877.07
3807.77
3964.29
3879.04
3907.92
1377.78
1143.47
1650.61
1404.36
1724.25
1621.14
1633.59
899.91
563.88
475.97
3443.92
522.55
488.58
704.72
1312.98
1165.15
1278.65
1098.47
1237.56
1250.29
1285.85
1198.17
1383.17
1434.35
1111.72
1246.60
1147.62
812.74
777.34
517.33
679.02
1471.88
1587.67
2311.94
3264.41
3893.62
3855.93
3853.50
3909.12
2614.84
1804.09
749.44
1063.27
2920.04
3467.73
3745.21
3397.12
3025.07
2328.28
1531.17
1367.76
1187.04
1369.39
1104.12
1324.38
1802.43
1912.56
1095.35
484.80
533.85
874.11
1380.93
860.26
647.16
2586.06
3887.28
3874.75
2637.62
1506.71
1357.69
1585.07
1996.50
2097.87
1559.92
696.13
506.54
629.36
662.11
737.85
673.55
583.07
1299.00
1314.23
1309.13
1382.77
1574.58
1287.54
1543.58
2507.86
1921.87
1595.14
927.66
752.84
276.62
1063.16
1843.88
758.11
694.69
1881.08
1644.38
2208.22
2244.66
2160.47
1680.88
1583.92
1506.44
1808.34
1627.85
1960.54
3642.51
3953.24
3948.07
3909.92
2678.85
1619.12
4005.21
3944.17
3908.71
3833.33
3903.02
2795.48
1437.99
1234.38
1348.82
1068.37
640.92
670.58
791.22
869.91
585.40
989.17
1705.33
2282.53
2826.34
1786.19
1391.95
1496.46
1121.43
1391.49
1544.73
1463.15
1243.95
917.51
662.31
914.05
625.00
693.31
1290.75
2169.23
2289.45
2044.45
1685.26
1249.09
1305.26
1624.06
2870.92
3299.24
3235.06
3309.72
3399.36
3738.31
2155.40
801.71
1622.73
2505.40
3506.94
3322.85
3100.92
2263.27
1362.61
1518.83
1918.45
1819.56
1801.21
1186.76
1164.31
1062.93
755.45
532.77
466.34
887.09
1835.50
1898.74
1773.13
1270.32
1342.74
1335.49
1403.88
1786.01
2160.91
2472.22
2220.08
1592.05
625.15
687.07
777.33
686.85
988.46
1441.16
1532.10
1311.89
1187.43
1598.85
1599.48
1361.80
1403.12
1859.80
1867.29
1875.75
1592.26
1270.83
620.07
490.29
604.35
1649.54
2186.03
1568.87
1474.45
1318.94
1444.75
1423.43
1589.93
1448.26
1168.64
642.47
560.06
509.08
461.87
620.25
580.56
694.57
1497.83
2333.73
2344.92
2395.49
2715.50
2469.23
2149.53
1998.72
1661.00
1609.79
778.42
1314.95
2489.83
1380.13
764.60
583.74
1323.10
1890.12
1398.59
1223.16
1370.61
1676.75
1806.39
2327.55
1375.26
1234.40
1169.64
1311.72
1992.49
1822.16
1383.13
455.89
679.77
1206.47
2341.28
1858.87
2171.56
2226.79
2281.31
2546.16
2504.01
2967.22
2939.84
2252.09
1894.08
1987.84
640.53
790.31
946.43
979.64
2551.86
3178.55
2190.18
1438.73
1530.79
1307.05
3173.10
1531.31
1490.02
1689.72
895.24
889.01
852.92
698.71
868.61
751.45
918.78
2778.60
1936.07
2426.14
1600.48
1325.41
1425.29
1328.01
1854.15
1624.49
1343.75
531.41
3210.48
628.34
464.87
607.63
1118.29
1729.74
1478.31
1255.48
1316.74
1184.93
1505.12
1337.56
1290.81
1269.30
1781.66
1449.00
719.42
433.64
1469.67
2528.13
2141.06
1200.41
1397.92
1280.09
1324.07
1102.59
1425.55
1387.92
1482.55
1447.28
1894.45
1858.85
716.44
672.77
711.73
796.61
1013.52
1197.74
901.98
1140.78
1373.59
1406.73
1421.15
1273.39
1301.88
1314.17
1526.98
1539.32
1344.42
718.92
796.51
849.98
895.42
708.28
587.45
952.23
1849.36
1555.30
1686.47
1504.89
1602.71
1787.74
1498.84
1541.14
1427.52
735.14
697.69
2025.93
514.27
769.13
789.63
501.66
1293.38
1468.90
1229.61
1250.90
1591.57
2176.93
1913.31
1655.39
1413.38
1345.04
1672.98
1709.15
1844.11
1011.85
634.62
913.05
845.72
1630.31
1911.29
2126.32
2224.35
3724.51
3849.35
3870.95
3833.19
2418.92
1356.93
1526.66
2341.32
3847.45
3881.16
2505.46
2078.52
2160.34
2077.31
1973.85
1787.36
1344.61
1424.69
1374.46
1588.17
1962.56
2548.83
2815.63
2680.12
1573.32
636.30
1335.32
2341.81
2035.13
1516.86
1579.07
1880.50
2491.17
2745.29
2289.15
1482.35
1332.24
1580.89
1566.78
619.99
567.09
633.97
451.40
539.71
670.57
1043.38
1323.08
1268.45
1346.04
1201.91
1366.94
1326.53
1612.88
1567.12
1284.68
1176.33
615.85
674.52
598.58
550.28
687.10
753.47
1539.24
1970.95
1656.22
1675.21
1459.62
1426.21
1751.24
1743.33
1909.14
1482.15
746.20
790.21
1847.59
772.78
758.47
632.90
780.17
1355.90
1230.66
1350.93
1279.95
1331.59
1526.96
3323.69
1845.47
1719.74
1854.66
1305.00
1623.98
2339.18
2325.76
1330.24
882.15
997.00
1890.81
1671.32
1334.67
1278.17
1358.29
1597.48
1443.09
1554.37
1669.63
1505.83
718.69
542.55
742.86
524.63
774.42
697.93
1528.43
1412.93
1532.22
1390.13
1751.65
2183.24
1742.14
1532.96
2690.31
3863.57
2929.42
1540.18
750.45
540.61
1124.15
1328.82
1854.04
3300.21
3761.91
2921.93
2037.67
1757.30
1640.90
1395.62
1479.02
1494.72
1453.83
717.41
550.06
466.99
802.66
1299.39
1293.20
1226.64
1221.59
1280.74
1226.97
1460.12
1668.15
1763.00
1805.61
1693.74
1293.45
1262.92
537.92
1314.47
2996.68
3108.38
1823.52
713.00
1417.81
2010.48
1761.29
1781.96
1819.58
1568.51
1586.73
1432.70
1416.80
1209.58
1378.53
858.87
837.27
738.94
1161.45
1706.51
1390.65
1310.45
1292.82
1188.80
1257.57
1252.97
1344.29
1361.75
1287.09
1530.42
1404.94
899.71
1347.27
1308.93
1629.41
1649.49
1894.95
2341.41
3921.53
3843.33
2329.79
1202.89
2424.93
3219.30
3212.12
2421.11
1580.09
1304.07
661.56
1560.15
2429.00
2183.66
1325.18
675.71
1142.88
2103.31
2136.94
1396.02
1215.50
1363.07
1598.60
1471.61
1367.13
1482.44
800.16
511.93
604.58
516.02
695.27
1001.84
1199.76
1867.53
1532.95
1727.15
1548.36
1673.01
1834.79
1609.11
1740.74
1840.37
1580.12
778.66
1424.56
609.65
1181.74
1320.78
1157.37
1090.91
1779.54
1931.85
1239.40
1234.85
1281.83
1741.56
1267.34
1265.59
1309.96
1555.74
1487.63
1586.93
1667.47
1188.48
871.42
1020.79
2303.34
1492.33
1492.68
1328.90
986.16
1339.33
1903.31
2519.26
3289.23
3967.70
3793.66
3662.73
1598.32
1743.88
3360.81
3948.79
3219.06
3239.37
2354.81
1803.17
1343.39
1207.22
2186.00
1352.43
1637.71
1383.55
1407.90
596.16
592.39
902.53
1065.28
1307.73
2299.38
2988.76
3474.58
2632.43
1778.11
1117.43
1088.31
1463.86
1746.24
1450.19
1277.84
1649.33
3667.24
1891.34
1164.15
705.15
1337.73
1480.81
1314.80
1747.79
2284.16
2633.90
1810.92
3864.98
1413.05
1340.02
1445.74
1503.10
1496.95
1903.43
2039.65
2027.09
1545.79
1970.70
2990.80
1918.84
1490.59
1407.02
1602.41
2324.53
1915.67
1668.25
1520.83
1406.82
1442.58
3271.86
1006.82
604.06
501.51
382.65
776.87
1420.20
1399.96
1501.41
1882.43
1560.78
2788.99
1951.77
2288.26
2193.75
2321.99
1872.14
1861.18
1530.33
702.02
571.86
960.27
1535.93
1315.99
1420.32
1363.31
1599.82
1238.13
1447.06
1405.65
1356.84
1622.34
1620.59
1494.69
1336.54
876.61
846.79
866.98
681.28
660.52
1484.29
1298.13
1392.75
1463.78
1235.20
1575.07
2031.38
2157.23
2189.73
1780.21
633.27
1513.59
1973.85
1668.54
1475.61
1143.62
775.04
1573.73
1661.42
1982.28
1642.93
1418.08
1691.35
2011.87
1477.19
1297.73
1240.16
795.32
1222.08
1067.79
722.07
584.20
866.57
1329.27
1355.72
1727.48
2070.21
2135.59
1609.43
1273.49
1318.31
1443.41
1760.97
1354.65
1114.27
797.43
482.56
682.12
905.82
1037.83
1726.05
2083.10
1784.58
1402.18
1028.23
1408.89
1421.46
1634.71
1525.08
1417.78
791.52
665.20
736.21
764.83
640.11
611.93
842.46
1168.53
1520.88
1303.21
1299.86
1584.77
1408.08
1836.56
2175.30
1722.03
1376.19
1051.16
885.36
1316.25
934.21
1018.57
849.41
1210.18
1268.17
1274.39
1034.53
1217.73
1471.20
1464.82
1520.75
1535.02
1270.54
952.65
607.63
515.78
585.40
561.44
537.06
687.93
1225.62
1443.45
1351.87
1384.12
1513.52
1552.54
1827.09
1927.81
1728.68
1564.19
768.90
1167.33
1366.51
896.28
698.97
1810.93
1989.06
1362.99
1265.68
1547.33
1325.52
1808.06
1444.65
1423.44
1316.04
1399.28
1453.62
542.23
956.24
1051.84
1344.23
1164.69
806.22
1246.27
1467.74
1497.39
1517.54
1732.33
1578.65
1538.28
1187.30
1347.49
1328.54
2316.44
2897.23
2235.62
855.80
1489.42
2102.46
2304.05
3015.19
3256.03
2987.43
2431.82
2068.63
1503.25
1216.92
1929.23
1587.71
2615.67
566.83
610.37
1010.00
1073.81
1501.11
1324.82
944.58
1283.62
1189.49
1320.87
1965.03
2270.00
3102.66
3182.46
2911.11
2075.49
1165.91
1077.98
1609.27
1477.77
1245.71
1859.95
1009.50
1095.91
1384.86
1332.26
1382.25
1336.91
1136.30
1485.19
1468.22
1595.68
2308.67
1139.30
707.85
937.49
871.08
577.76
611.02
584.50
1095.10
1202.45
1199.31
2570.04
1368.74
1371.01
1091.88
1333.52
1235.54
1571.44
1133.73
945.40
941.88
1223.19
2669.46
1418.20
715.13
1416.21
1048.76
1339.24
1292.30
1312.96
1753.21
2007.17
1298.48
3590.02
1298.24
709.96
1735.85
2141.54
2228.74
2089.98
1461.85
1133.19
1175.73
1726.67
3852.65
3906.24
3935.26
3364.93
2239.40
1586.80
1292.02
1307.15
1421.51
882.49
846.85
2390.62
1681.96
1203.54
1276.69
1454.80
1593.25
1706.93
1444.04
1557.66
1424.30
1415.79
1373.04
1960.43
1726.31
1212.83
863.85
957.74
736.07
851.46
511.10
1542.85
1298.46
1371.25
1245.40
1417.97
1994.80
2116.80
1842.02
1434.05
1237.96
540.29
980.07
1271.67
831.85
957.74
899.58
1132.40
1517.35
1825.62
1441.25
1311.71
1341.28
1197.57
1183.50
1392.92
1253.04
1110.20
603.36
452.01
621.20
689.78
1001.91
533.18
1343.06
1274.16
1367.33
1517.03
1230.49
1434.16
1434.20
1499.55
1390.33
1648.88
826.58
689.09
964.56
470.03
843.79
596.25
1515.52
3262.00
3405.02
3290.22
2030.00
2008.92
1829.18
2086.92
2102.26
1946.24
1340.38
1016.85
2991.92
3961.74
3895.17
3406.34
2950.48
1719.75
1289.90
1378.86
1421.00
1369.58
1181.19
1616.09
2087.34
2658.68
3127.94
2352.48
1528.18
933.30
945.58
1405.88
539.34
774.27
1371.77
1307.51
1304.36
1571.61
1433.03
1567.28
1190.28
1550.81
1428.75
1196.59
1021.17
1029.81
754.51
558.15
574.07
760.27
656.16
1386.96
1117.40
1326.90
1040.34
1269.45
1220.11
1284.20
1096.43
1350.01
1304.69
639.84
823.36
801.31
809.16
822.37
625.46
1230.88
2048.86
2215.54
1917.78
1334.81
1357.69
1862.79
1706.54
2072.54
1629.98
831.04
480.91
523.50
562.38
687.56
428.04
814.95
1300.54
969.72
1426.03
1299.46
1148.19
1261.23
1254.31
1730.47
1307.80
1379.91
738.94
572.67
578.35
1319.24
1113.43
797.47
672.94
1706.50
1334.30
1463.47
1371.64
2000.59
1853.52
2132.92
2840.11
3717.49
3739.12
2355.95
945.23
613.92
1220.20
1631.05
1656.75
2535.18
3893.23
3942.00
1600.03
1384.08
1580.76
1430.07
1519.94
1517.64
1413.26
1287.19
583.86
589.54
1381.74
840.86
537.67
924.66
2284.72
2595.17
2040.40
1596.72
1717.85
2841.14
3783.08
3833.25
3838.78
2920.51
1012.28
1503.15
3271.49
3255.13
2697.96
1993.62
1491.87
1443.77
2436.64
1322.91
1236.10
1241.65
1234.32
1524.33
1193.42
1062.49
1252.53
1089.33
1576.70
2559.91
995.82
802.98
596.21
1027.48
1243.94
1442.54
1461.02
1620.94
2294.99
2779.43
3255.55
2366.08
1890.80
1436.92
1208.08
1508.40
1038.99
534.61
1906.15
2533.39
3332.42
3940.71
2579.63
1781.86
1529.47
1321.55
1335.83
1832.62
2410.68
2564.58
1204.50
789.15
3007.86
1011.25
1150.68
1376.93
1807.73
2636.62
2578.92
2257.92
1282.20
1099.83
1216.88
2978.71
1235.30
1207.10
1530.09
498.71
633.96
597.23
450.68
555.03
1027.08
1469.21
1262.82
1317.11
1051.25
1114.37
1184.37
1408.19
1489.24
2007.90
1863.58
2289.86
2290.55
1476.17
731.27
561.64
1139.03
1428.85
1107.77
1637.46
1802.43
1934.65
1909.14
2308.12
2025.79
1888.12
1795.75
1723.45
706.07
555.34
1206.46
1311.53
904.36
770.53
632.03
1430.35
1340.13
1371.72
948.23
1424.32
1177.41
1367.51
1267.27
1295.51
1195.87
665.09
430.24
757.01
718.85
1006.98
1298.07
1592.57
2306.41
1818.31
1324.51
1258.59
1550.43
1837.20
1582.87
1773.39
2090.42
2136.40
2147.05
2304.59
1134.76
1314.47
2911.74
2544.65
3515.47
2618.42
1642.27
1465.11
1667.50
1347.32
1330.16
1275.81
1559.29
1896.34
1380.98
1322.94
973.22
553.11
1026.75
995.97
658.54
1606.22
1678.95
2167.22
2259.35
2890.62
3458.82
3231.01
2496.64
2025.32
1549.40
604.02
1102.01
1265.84
1301.94
1609.59
2337.75
1840.59
1288.11
1227.63
1169.65
1335.47
1012.83
1252.42
1133.70
1456.70
1196.42
1443.42
2042.09
1889.22
1002.49
752.61
565.98
836.73
2007.71
2058.21
1434.92
1260.57
982.11
1485.25
1608.81
1663.02
1705.02
1331.94
664.10
599.46
257.71
420.78
570.70
416.03
735.47
1395.95
1379.44
1318.08
1164.76
1390.74
1312.61
1554.99
1293.84
1409.98
1376.78
875.35
1217.22
629.12
1021.60
1559.41
1881.81
1669.71
2133.90
2297.62
2289.80
1912.89
1798.61
1738.08
1096.01
1435.86
1187.73
1191.86
499.41
481.62
593.13
850.96
689.59
745.98
1524.67
1425.55
2033.48
2118.49
1338.19
1329.65
1432.97
1363.30
1413.96
1659.45
1407.51
2230.06
1111.88
611.04
610.80
769.00
1271.10
2574.86
3059.68
3390.10
3898.54
3882.48
3933.44
2959.94
1278.47
1931.74
2813.88
2381.24
1634.93
577.17
450.91
733.36
551.43
2769.31
2342.84
2467.35
3123.14
2257.45
1328.76
1457.93
1675.64
1509.64
1177.17
1197.51
1819.20
1624.55
2432.32
2051.59
1148.24
596.22
1639.36
2636.12
2931.60
1867.17
1280.33
2631.67
1876.68
2338.50
2250.83
2289.15
1379.38
628.25
341.05
1215.65
1445.51
550.06
2223.26
1449.80
1200.64
1134.54
1211.87
1395.21
1103.01
1260.72
1309.48
1623.12
1518.67
2827.40
763.95
847.26
1389.12
1570.34
702.66
1045.61
2312.38
3079.91
2676.19
2066.14
3581.42
1693.91
1310.46
1271.40
1389.59
1288.67
505.05
634.47
1021.55
1448.48
1652.38
2473.34
1361.84
1660.11
2073.15
1818.89
1279.55
1253.85
1332.42
1335.21
1571.66
1600.34
801.85
665.98
862.74
1286.08
961.71
661.48
731.21
2049.78
2025.20
1752.61
1308.28
1658.45
1614.94
1698.69
1231.37
1722.08
1464.51
1044.68
1241.33
1061.25
793.10
522.57
597.10
1150.73
1049.68
970.37
1303.19
1319.58
1098.66
1286.68
1323.28
1436.65
1229.30
1127.92
840.31
731.08
1016.55
1221.61
1223.73
1300.79
1374.83
1293.41
1097.80
1299.50
1120.03
1895.31
2359.41
2581.37
2060.83
1532.62
728.95
1020.04
679.45
603.16
467.58
790.50
949.00
1602.10
1721.69
1820.81
1330.75
1295.68
2160.08
2670.59
2239.08
1478.75
1257.85
599.09
432.15
886.44
1218.66
1411.80
1287.27
744.95
1026.50
1215.25
1396.46
1429.92
1512.55
1499.17
1541.94
1547.14
1351.50
1218.11
782.68
706.81
730.25
1133.27
866.97
923.74
1372.80
1594.84
1671.53
1575.41
1252.70
1074.16
1605.73
1829.03
1796.30
1340.96
841.99
738.32
1040.42
1381.39
1373.52
1554.98
1399.24
2298.59
1826.26
1572.08
1099.23
1435.55
1275.23
1336.11
1271.87
1181.53
1290.11
631.60
648.45
404.83
1065.49
1435.52
1869.74
1374.24
1135.45
1494.14
1398.06
1621.05
1419.60
1213.49
1254.71
1345.90
1244.14
1570.07
1511.91
1392.47
754.38
881.02
734.41
559.63
1261.43
1530.16
1282.59
1648.81
1526.01
1473.84
1246.34
1380.13
1487.80
1485.97
1132.74
1171.85
2039.64
2152.95
2028.67
2043.50
1108.85
1412.26
1768.86
2490.92
2657.80
1643.25
1391.06
1547.84
1190.75
1469.74
1779.38
485.24
819.56
1406.45
755.09
787.15
1641.93
2495.64
3848.14
2966.49
2049.09
2308.39
1351.47
1542.13
1437.79
1512.81
1807.91
2100.77
1388.53
716.68
270.25
1035.66
2043.79
1817.65
1625.71
1733.58
1471.18
1082.73
1221.65
1334.73
1406.23
1430.63
1363.87
2469.96
718.64
922.57
743.34
415.08
467.65
1110.00
1288.83
2269.76
2625.49
2665.35
2250.75
1279.86
1366.49
1341.50
1286.13
1320.25
1455.78
1045.24
762.65
726.06
486.77
2324.80
559.89
1018.89
1215.67
1558.36
2159.77
1302.30
1301.39
1697.61
1614.37
1613.68
2669.79
1588.50
621.89
639.97
742.05
820.18
709.59
664.27
1370.76
1457.96
1984.08
3159.78
1992.17
2561.71
2807.93
1747.01
1353.97
1370.61
541.78
522.31
385.02
827.06
3162.60
2100.72
1661.83
1497.98
1451.37
1244.15
2470.57
3758.15
2943.56
1604.44
1397.49
2451.09
1366.04
1053.56
1580.40
1935.98
1716.96
1355.02
556.87
869.62
1198.71
1327.73
1549.56
1322.12
1797.62
1731.25
1488.32
1385.64
1360.13
1496.85
948.13
1465.53
995.41
836.74
475.10
545.83
1189.54
1313.61
1199.96
1339.95
1241.53
1266.72
1374.85
1325.06
1408.83
1330.24
686.42
572.67
660.59
882.09
1019.41
914.19
956.69
1928.73
2208.72
2388.41
1987.55
2018.02
2418.83
2870.21
1977.77
1657.73
1633.02
1279.39
542.89
2239.69
2826.64
2424.89
1540.32
721.11
1402.91
1296.59
1069.92
1135.62
1121.02
1720.98
1679.99
1837.20
1692.26
1422.59
581.10
520.89
480.89
921.40
630.15
830.58
1254.91
1758.45
1860.97
1542.74
1154.37
1720.10
1328.82
1385.94
1222.43
1518.70
1099.76
1038.03
1169.29
946.02
502.08
749.28
2501.61
3776.70
2405.35
1322.16
1464.91
2051.70
1840.67
1500.09
1356.73
1570.12
1074.60
1112.26
1304.91
1598.02
1386.99
1250.14
431.47
1458.20
1541.21
1306.93
1499.33
1387.24
1566.05
1663.11
1332.72
1276.60
1365.30
1374.62
960.06
1330.91
1240.88
1323.52
853.89
666.38
1188.83
1480.55
1586.53
2101.43
2216.32
1536.28
1447.06
1317.14
1535.26
1359.47
727.17
638.76
865.12
423.22
994.10
1230.58
1194.15
2118.06
1841.26
2240.08
1684.55
1334.35
1367.70
1299.86
1205.53
1378.55
1372.04
705.81
684.46
688.38
1105.90
1607.21
1387.78
1462.17
1483.65
1641.33
1566.52
1230.32
1398.18
1387.31
1081.71
1650.61
1243.98
1923.25
2484.39
2327.33
1761.45
713.78
572.51
689.10
1365.58
1441.74
1587.96
1560.94
1123.27
1414.73
1278.32
1431.44
1100.94
1471.52
1194.73
1458.42
947.46
1905.03
702.32
1225.17
839.47
1314.42
1791.86
1977.32
1268.95
1132.08
1279.19
1445.89
1737.51
1465.32
1242.93
710.14
548.46
449.82
903.86
1351.51
1440.63
776.96
1671.47
2911.03
2430.13
2085.96
2263.99
1919.65
1528.90
1506.08
1321.51
1566.77
1687.75
1622.34
2379.49
729.29
922.08
1522.68
1369.35
1096.54
1088.96
1311.06
1150.94
1449.80
1312.07
2863.94
1573.77
1780.64
1723.45
1377.93
1367.29
1394.18
1253.45
727.58
1018.80
1300.76
2932.25
1647.52
1322.11
1366.85
1382.32
1375.02
2285.54
2491.23
1414.03
760.65
544.13
3394.83
1832.13
2082.01
1754.94
896.83
1349.34
1308.11
1261.98
1301.63
1306.03
1364.27
3715.01
1439.50
1353.86
1374.88
778.77
749.14
781.63
809.23
673.90
850.65
1313.08
2280.64
1854.83
2369.76
1696.43
1713.67
2074.00
3024.01
3855.89
3868.31
1869.28
827.43
1216.48
720.64
754.67
938.03
711.25
1313.48
1291.27
1526.35
2431.39
2937.61
2023.42
1480.64
1287.38
1572.16
1576.32
1264.70
546.01
694.79
1449.53
1259.68
1216.55
539.35
1680.65
2870.34
3058.17
2454.67
1601.30
1300.53
1468.86
1373.82
1481.43
1885.95
867.60
685.38
675.52
759.18
505.68
644.00
1258.09
1284.47
1369.96
1226.63
1287.61
1307.44
1417.40
1612.06
1284.22
1624.65
936.51
606.92
602.34
608.12
869.72
481.70
615.87
1168.25
1307.56
1395.33
1381.68
1335.58
1565.80
1651.82
1401.06
1639.21
2355.10
2250.25
1486.54
831.99
1588.99
1671.52
825.62
834.53
1165.77
1156.64
1228.49
1358.80
2095.65
1917.95
1447.15
1467.30
1346.62
1373.93
773.99
836.45
1107.03
1818.74
2048.10
1635.07
1544.61
1890.72
1611.50
1633.51
1225.88
1290.97
1295.96
1214.65
1338.55
1525.90
1251.33
1416.91
1503.26
1349.06
852.39
760.22
594.02
1517.96
1315.92
1529.52
1462.68
1545.14
1426.51
1350.46
1251.32
1578.61
1607.00
1179.03
1136.88
1388.60
1446.43
1537.38
1215.67
1207.00
1439.41
1437.18
1373.34
1740.94
1287.50
1490.22
1356.18
1446.07
1329.13
1358.54
688.50
1460.18
1826.37
1511.58
1057.93
821.55
1243.65
1356.47
1487.30
1626.91
1839.41
1588.23
1419.92
1323.80
1482.61
2195.64
1466.70
754.84
424.99
392.81
550.53
706.51
1186.40
3164.06
3965.10
3176.99
1723.82
1312.74
2380.06
2067.87
1373.37
1573.92
1849.17
1459.28
1412.74
1265.27
686.89
835.68
578.31
1213.37
2352.91
2026.83
1806.64
1324.96
1205.87
2562.84
1185.04
1357.69
1744.96
1605.11
1009.89
669.25
615.75
843.00
1501.98
2084.48
2612.77
2203.39
1561.98
1677.18
1086.69
1583.81
1190.74
1262.73
1118.25
1586.28
1865.74
3822.95
3864.62
3986.47
3383.39
1152.73
1271.32
3182.70
3860.10
3921.89
3903.19
3874.41
4010.61
2341.76
1519.03
1512.50
1356.09
1175.29
902.43
800.74
979.44
1383.00
2083.20
2791.18
2076.17
2427.60
2022.64
1418.65
1528.97
1384.22
1179.28
1508.14
1630.54
1531.29
2451.63
1419.42
1426.50
1303.03
650.95
746.24
1053.91
1122.89
1211.81
1336.29
1114.80
3937.96
1442.58
1359.77
1688.11
1404.85
1317.49
1243.86
1215.38
536.02
974.15
1628.40
3099.75
2031.05
2076.48
2039.38
1941.58
2221.66
2170.79
1790.07
1204.45
1326.97
1183.98
1281.51
1047.86
842.71
503.53
707.60
876.98
755.24
1007.15
1218.10
1356.55
1764.25
2464.12
1154.77
1305.79
1345.93
1653.55
1490.33
606.96
580.85
670.12
755.93
1242.53
842.01
718.56
2180.82
1848.78
1361.08
1069.32
1228.12
1299.11
1709.08
1358.74
1762.97
1353.86
1068.66
1103.74
803.73
442.49
560.81
980.54
2058.18
1699.82
1658.73
1206.16
1586.29
1881.78
1754.16
1520.20
1490.01
1296.28
665.46
867.06
1290.78
1425.40
1410.29
1088.62
1731.69
2596.73
1942.02
2170.99
1565.45
1040.93
1256.34
1264.93
2223.45
2212.16
1582.82
645.52
441.00
944.11
825.75
912.87
842.99
1170.24
1401.60
1425.96
1277.51
1493.54
2169.97
2669.56
1695.25
1246.44
1667.48
3749.81
3956.65
3236.89
1164.42
733.15
739.90
864.05
1313.20
1684.56
1597.97
1430.44
1414.45
1546.54
1217.76
1229.00
1211.63
1226.35
1034.34
666.39
488.31
884.45
1126.51
791.68
581.50
1466.89
1493.67
1590.59
1898.78
1837.23
1401.47
1485.30
1350.25
1728.05
1743.97
620.61
890.74
766.15
1725.40
2485.96
2756.37
2571.86
2916.07
3579.79
3423.29
1944.93
1252.05
1264.07
2418.49
2356.93
2679.07
3817.85
3449.45
2649.49
1146.29
554.44
639.84
789.87
1151.18
1440.80
1574.20
1254.54
1724.65
2327.17
2587.86
2577.10
2167.24
2124.61
1097.04
656.20
1138.93
712.65
953.42
1718.74
2084.70
2316.23
1498.96
1314.99
1282.74
1330.00
1670.87
2095.51
2600.86
2909.18
2115.53
574.95
1230.98
2370.61
2950.75
2715.97
2719.90
3168.82
3121.89
2818.33
2290.38
1953.44
1365.30
1823.48
1566.47
1768.08
1918.52
1454.52
1188.24
561.70
961.44
773.27
1897.03
522.04
1259.83
2044.66
2376.67
2094.70
1342.56
1861.77
1950.63
2343.64
3192.22
3538.17
2200.82
720.73
589.26
774.51
746.93
2053.89
2526.75
2390.32
1317.69
1424.06
2433.45
1217.68
1379.46
1445.78
1643.43
1941.16
1923.58
1632.19
1604.40
1754.98
2206.96
2514.86
1321.43
672.41
1464.20
1402.39
1392.85
1324.52
1571.42
1577.40
1420.37
1432.39
2619.19
891.98
1297.64
1340.46
1204.26
735.36
740.96
642.89
1810.84
2195.68
1756.36
3270.98
1376.54
1108.38
1274.48
1377.28
1456.21
1416.35
621.16
305.55
540.61
933.36
2873.87
688.32
465.72
1768.40
1968.69
2369.76
1309.85
1327.55
1399.23
1453.31
1694.83
3057.01
1736.76
1272.71
1179.97
671.46
598.13
1705.31
1181.54
906.60
1317.63
1220.22
3996.84
1307.71
1452.60
1234.39
1274.71
1153.53
1451.41
1620.53
1314.08
966.00
615.20
1169.78
1005.10
2174.69
3223.66
2424.70
1564.69
1100.18
1137.15
1254.70
1337.18
1090.97
1462.53
1401.36
1384.86
1507.95
1377.50
469.16
963.12
1388.61
1725.94
2215.98
2251.14
1927.83
1801.42
1345.85
1290.14
1381.10
1358.20
1620.05
1461.11
1030.47
1103.51
1251.56
1347.69
1098.55
1769.90
2521.86
2764.26
1919.56
1602.91
1151.68
1428.50
1315.24
1404.01
1323.11
1558.03
781.52
841.95
873.79
668.59
484.58
595.35
811.87
2039.28
1850.11
2213.95
1961.52
1329.40
1245.36
1554.42
1642.18
1649.30
1345.51
761.38
819.88
1005.91
1123.10
900.23
425.13
429.72
1397.43
1315.37
1217.43
1367.93
1981.66
2581.72
2310.21
1860.32
1319.66
1435.98
496.64
806.54
846.25
990.61
1026.30
1460.62
1661.72
1363.31
1261.77
1433.58
1433.58
1383.11
2139.19
1935.03
1662.99
1348.38
911.25
530.10
639.31
476.54
782.25
1104.99
799.18
1673.13
2080.52
2244.65
1520.88
1386.65
1569.95
1399.33
1106.49
1525.55
1116.31
631.76
1308.43
1349.22
929.81
752.31
1131.36
635.49
1218.04
1138.69
1466.66
1701.47
1637.35
1274.09
1178.76
1366.77
1099.58
1527.21
527.18
614.32
501.99
950.34
1001.86
1010.11
599.84
1659.28
1946.52
2707.53
2505.24
2484.84
1605.50
1358.12
1586.30
1679.31
1337.29
606.87
591.41
486.25
500.67
697.51
612.71
1808.08
1550.04
1520.31
1280.07
1776.29
1918.48
1383.92
1801.04
1948.27
1500.57
1757.65
1670.94
1479.01
1445.34
847.33
802.45
1016.46
1238.39
1411.20
1369.81
1366.93
1541.64
1483.82
1346.45
2633.65
1425.07
1338.49
532.46
458.46
612.06
803.63
949.92
837.09
889.50
1386.88
1783.71
1281.67
1173.41
2366.35
2833.06
2229.09
1789.40
1372.10
1058.16
784.29
729.23
2149.98
1078.13
939.41
908.60
1921.67
2092.76
1977.74
2701.51
3083.63
2934.33
2706.48
2653.64
2181.74
1960.56
1517.17
894.33
579.70
605.03
1084.61
1846.98
1131.92
1363.48
3252.74
2182.80
1476.74
1146.42
1230.68
1182.09
1332.44
1120.52
1381.59
657.86
729.75
2613.00
698.15
525.13
1246.74
2191.22
1656.90
1305.09
1365.12
1407.45
2060.20
2166.59
3203.24
2274.11
2601.26
2224.64
1126.86
1159.28
1487.81
846.20
532.90
633.75
1298.93
3915.00
1363.57
1215.13
1276.56
1201.44
1309.88
1290.41
1347.95
1219.43
756.25
500.29
2699.54
760.53
1070.46
825.35
641.20
1242.98
2004.05
3826.42
3859.06
2862.57
2138.26
2257.52
1404.57
1570.03
1788.34
2024.28
1412.32
477.50
857.17
804.46
853.83
570.98
1321.91
929.46
1395.13
1234.34
1159.68
1432.21
1760.34
1287.44
1540.83
1741.75
994.97
848.19
913.83
863.08
1378.20
922.29
1087.60
1302.73
1308.25
1852.52
1475.78
1399.59
1786.66
1710.21
1657.30
1878.04
1992.22
1969.24
2358.35
1967.61
1647.46
1015.36
619.52
1426.85
1495.91
1272.43
1370.01
1378.43
1285.60
1242.38
1351.96
1194.12
1369.30
718.08
798.27
909.14
1323.24
932.32
721.46
764.91
1505.29
1204.34
1378.70
852.53
1581.69
1549.39
1574.46
1403.85
1325.50
1120.94
642.92
588.84
535.57
622.94
679.54
658.84
1237.81
1530.33
1549.16
1203.09
1405.46
1332.80
1792.11
2132.88
1972.17
1564.30
1044.51
774.92
1268.45
1693.33
1658.38
1108.73
765.37
1073.02
1559.52
1267.29
1405.24
1004.85
1448.63
1919.25
2381.05
2151.73
2021.12
973.89
594.79
946.20
1145.91
1031.78
467.53
907.97
1464.04
993.32
1251.37
1506.67
1720.64
1385.19
1613.03
1343.66
1381.59
1408.33
1475.50
964.01
897.40
1171.97
1059.31
810.26
1073.72
1771.42
1905.53
1872.12
1462.65
1637.03
1897.93
1346.18
1289.62
1397.67
654.41
701.33
712.17
714.70
725.12
623.41
789.75
1472.48
1520.28
1885.49
1728.69
1372.24
1107.37
1283.95
1508.27
1317.45
2490.63
2594.86
2705.57
1589.19
1481.39
895.26
700.60
635.59
1702.16
2008.38
2006.65
1257.62
1262.30
1498.15
1485.52
1448.51
1455.59
1064.02
482.12
474.00
1251.01
2355.64
2001.16
1160.94
2616.84
1469.59
1544.97
1193.85
1117.72
1139.35
1501.74
1450.34
1739.80
1837.78
1591.56
1565.56
667.50
876.65
1403.76
1448.02
974.38
1164.09
1302.07
1600.96
1415.38
1254.74
2389.27
1486.35
1385.81
1334.73
1424.37
1175.73
525.23
633.03
555.24
477.06
801.45
1616.97
1505.30
1260.99
1327.32
1280.12
1451.31
1290.81
1248.99
1376.89
1375.82
1278.45
2190.71
1098.99
986.48
843.68
1805.89
2772.29
3047.88
2712.45
2143.54
1596.82
991.47
3303.60
1231.19
1093.16
1433.71
1249.49
930.86
970.95
720.51
396.05
570.85
391.27
3187.72
1329.25
1522.87
1837.97
1610.05
1597.41
1374.74
1349.61
1676.26
1646.20
1811.87
2652.25
1595.70
1115.21
436.37
587.65
753.31
1238.52
2020.74
1544.58
1534.30
1064.58
3096.17
1394.02
1533.02
1343.39
1534.80
1675.21
1319.05
700.05
459.19
789.77
992.86
1187.16
1628.75
1508.50
1502.11
1473.03
1308.37
1467.90
2037.67
2065.13
2137.81
1565.70
750.32
821.09
1047.77
807.35
842.46
627.55
802.04
1216.27
1283.61
1717.90
1426.45
1032.64
1618.73
1689.06
2090.65
1864.37
1400.06
582.61
686.84
406.06
867.79
826.38
777.44
1038.77
1310.91
1258.50
1493.13
1130.48
1789.70
2937.00
3297.56
2213.25
1437.44
1176.53
2189.67
2332.16
2018.50
1712.13
1728.69
1596.74
1381.97
1331.05
1733.51
1780.26
1411.63
2001.52
1916.08
1830.51
1461.40
1419.84
908.78
532.04
562.85
712.79
1214.24
827.19
1204.98
1530.69
1497.93
1768.93
1676.86
1577.73
1418.35
1402.45
1574.62
1483.62
1670.77
1607.06
1271.33
1081.70
850.91
960.22
1359.25
1140.66
1749.93
1366.57
1623.44
1267.46
1586.05
1864.61
2060.91
1522.97
1467.40
1521.76
869.06
637.75
722.65
643.74
510.20
633.81
1377.89
1407.78
1468.95
1521.64
1316.20
2094.93
2308.68
1833.71
1402.05
1429.42
1142.42
596.96
987.24
2069.64
2840.38
2762.09
1937.86
1639.63
1640.42
1565.22
1553.47
1287.93
1638.73
1910.98
2048.58
1896.43
1633.24
760.40
1747.71
2411.60
1936.26
981.14
987.12
1232.45
1495.40
1290.39
1542.10
1640.41
1833.05
1688.43
1451.84
1714.51
1374.36
1642.71
892.42
1000.56
722.88
674.06
865.01
1136.09
1802.48
3450.81
3837.52
3587.33
2989.26
2896.53
2854.60
2130.65
1448.15
1728.58
1978.82
2036.99
1576.09
1409.34
790.10
1089.65
1004.59
1483.06
1442.28
1421.19
1496.83
1282.12
1601.71
1911.19
1497.71
1360.25
2570.19
1155.66
1336.86
547.74
661.82
659.44
784.72
912.42
1733.21
1673.09
1420.80
1824.98
1600.92
1668.04
1487.28
1823.00
2088.65
1988.88
1545.34
1110.76
828.42
619.70
2130.53
574.76
1339.94
1417.40
1393.86
1726.70
1464.69
1400.81
1307.95
1197.18
1532.22
2372.60
915.53
422.13
840.45
1229.04
931.87
670.04
932.89
1767.04
2341.57
2544.77
2636.54
1911.49
2248.16
2550.13
2803.98
2530.90
1602.26
1370.31
2188.63
2238.81
1130.54
3278.80
1644.51
1985.87
2029.96
1733.32
1766.97
1286.71
1140.19
1583.42
1710.36
1666.50
3130.09
1677.69
818.12
1008.75
989.44
703.34
561.93
600.25
1071.13
1537.16
1239.53
3844.34
1354.55
1444.28
1656.41
1365.49
1756.67
1783.45
1720.70
1586.05
1803.76
1416.95
2828.52
523.12
650.85
1090.53
1317.31
1139.06
1465.83
1421.41
1580.22
1189.68
1629.73
1778.64
1622.27
663.26
773.78
747.22
1167.01
1390.04
1352.41
1327.37
2518.42
2611.26
2643.35
1915.51
1308.00
1311.65
1210.33
1161.03
1366.92
1621.23
1829.83
1194.71
801.94
1257.60
1536.03
1281.99
1498.91
1760.08
1778.19
1790.88
1320.95
1356.75
1352.90
1559.00
1590.29
1697.26
1162.01
577.48
702.13
706.97
1360.77
897.94
635.07
1436.39
1384.77
1495.98
1560.81
2053.33
2781.33
2073.86
1550.91
1585.36
1373.37
680.85
802.17
474.74
933.33
1211.89
1084.85
1050.81
1570.62
1520.81
1460.22
1323.17
1378.98
1362.75
1557.89
1338.24
1665.66
1359.62
893.31
887.32
1256.21
956.01
1218.13
1044.80
1242.15
1618.53
1417.00
1479.30
1252.53
1430.15
1204.23
1430.49
1615.18
1397.22
1058.68
741.36
680.15
718.75
875.14
556.11
721.38
1279.58
1227.68
1199.04
1352.50
1188.61
1378.22
1173.60
1483.90
1655.45
1675.10
912.52
568.52
595.59
558.08
553.28
1188.69
2184.47
3853.77
3745.14
3013.72
1405.12
1188.10
1232.15
1470.51
1376.24
1534.46
1572.02
680.97
561.28
1291.98
2018.22
1751.15
1688.78
1244.34
1387.74
1904.42
1409.79
1149.05
2612.81
2385.78
2374.15
1900.83
1316.32
905.05
999.08
795.62
563.89
876.18
1157.65
1609.60
1912.44
1991.76
2123.71
1427.84
1140.15
1442.31
1332.90
1373.89
1617.08
1465.15
575.42
684.93
601.20
970.16
694.66
910.92
1165.12
1466.60
1455.52
1462.48
1251.04
1336.95
1324.91
1313.04
1611.15
1608.69
1558.05
2018.98
2018.32
1931.26
1465.74
1515.74
1174.33
1202.77
1207.14
2866.11
1455.84
1458.94
1572.16
1309.40
2084.68
3202.41
3185.49
1436.12
1052.44
1720.51
2125.26
615.97
592.34
592.81
1701.60
1712.35
1145.64
1538.56
1161.03
1319.78
1562.22
2906.55
1232.76
2006.42
2240.30
2248.88
1833.50
1663.77
692.24
969.84
1915.84
2125.94
2993.36
1345.21
1181.77
1725.51
1720.17
1390.68
1479.76
1283.97
1420.62
903.38
642.19
2044.89
871.58
727.38
788.15
1188.92
1949.72
1721.36
1592.11
992.45
1373.58
1348.97
3070.41
1224.40
1459.18
1237.43
1058.44
950.26
859.82
1069.34
962.94
757.88
1575.25
2829.79
1875.91
1650.32
1956.63
2420.55
2288.94
1680.39
1188.17
1198.75
1392.72
1502.17
3857.33
841.53
791.28
812.51
692.94
1194.89
1136.50
1277.23
1173.81
1375.65
1538.86
3345.68
1293.81
1431.75
1767.19
1499.71
1003.42
1010.93
889.17
968.09
757.67
858.61
1590.81
2625.37
2976.38
2317.08
2026.06
1646.58
1663.02
1872.77
2144.38
2139.91
1772.20
1597.48
968.61
658.35
377.00
651.33
2118.84
3718.13
3911.67
3948.62
3958.71
2390.12
1416.99
1617.61
1736.37
1836.81
1562.67
1331.97
907.99
826.99
942.99
673.68
701.63
1708.96
2088.57
1897.74
1865.77
2109.40
1772.47
1588.01
1557.24
1587.66
1665.07
1482.91
1468.99
1614.32
1522.61
953.93
734.79
1042.27
1377.40
1302.50
1229.26
1223.48
1400.55
1260.61
1498.45
1422.98
1426.07
1426.59
1726.91
2472.64
1572.43
859.19
721.99
708.70
1306.23
1689.23
1572.94
1301.83
1228.96
1241.67
1489.19
1550.03
1825.98
1567.77
585.09
1054.90
970.40
665.61
834.92
1303.01
1077.51
1433.93
1296.20
1247.50
1307.05
999.56
1264.40
2167.36
2253.89
2269.27
1755.09
547.94
544.73
691.34
875.75
848.52
1166.98
2153.99
2725.05
2331.38
2304.65
1765.45
1373.73
1401.38
1357.26
1309.56
1378.45
1168.80
527.83
780.09
1201.84
730.65
526.87
716.57
1238.36
1407.89
1429.78
1722.17
1346.65
1227.53
1429.76
1577.16
1529.98
1568.82
727.35
870.68
694.78
678.44
475.78
935.71
915.19
2012.97
1888.27
1398.80
1433.02
1886.47
2336.60
1635.14
1464.26
1687.43
2189.10
2185.58
1382.93
711.97
1147.77
1760.07
998.86
909.38
1356.10
1175.54
1361.17
1490.54
1298.14
1735.60
1299.75
1278.61
1593.96
1417.59
1076.62
1183.35
780.64
817.15
800.64
931.05
2321.88
2356.31
2262.71
1873.01
1291.25
1422.18
1278.35
1201.58
1477.91
1568.53
697.17
2319.26
1020.60
1133.04
1025.76
773.33
648.64
1078.65
1603.00
1349.86
1306.46
1398.37
1791.20
1410.68
1558.24
1864.67
2114.64
2019.73
1576.97
889.29
652.96
484.73
641.95
2272.43
1868.07
1679.07
1120.17
1203.86
1134.91
1312.43
1200.50
1538.78
1234.08
1204.35
1672.42
953.78
1135.96
1072.18
772.26
978.25
1270.41
1372.33
1653.47
1374.73
1278.81
2703.98
1625.81
1493.30
1290.67
1310.79
896.02
1131.45
1200.10
1590.98
1409.64
1474.18
2641.24
2781.90
2493.16
1773.69
1248.16
1598.56
2006.83
1754.59
1236.84
1403.03
1416.20
2822.89
1209.36
1486.52
1959.61
1801.34
751.24
1045.52
1917.59
2370.24
1497.14
1423.25
3924.58
1382.21
1450.70
1713.29
1811.76
1760.26
971.79
