593.12
463.51
404.54
389.45
287.59
280.07
196.92
224.81
265.20
311.69
143.05
292.15
434.13
1317.59
412.03
342.49
201.67
169.61
205.28
252.21
370.76
497.91
467.19
29.76
212.05
216.26
551.07
499.17
444.08
393.13
477.52
461.33
637.43
598.44
523.62
245.54
322.46
451.51
169.38
200.66
185.02
300.43
417.93
668.94
835.81
1352.99
1568.21
1787.90
1419.74
384.94
871.88
1014.00
715.59
622.91
1177.37
1488.77
622.97
519.58
684.76
588.21
564.01
443.97
1202.40
263.65
201.84
185.85
531.47
375.92
403.68
458.86
264.38
137.46
209.20
288.69
184.19
545.46
428.86
625.13
473.45
672.16
625.76
281.67
284.12
841.61
1004.08
703.39
235.68
972.83
618.98
840.11
873.51
619.19
293.39
408.28
650.92
434.24
265.97
593.10
820.36
1370.75
582.61
566.68
279.04
588.89
962.34
642.69
426.34
282.86
166.26
184.53
335.88
2152.91
280.33
230.17
48.21
506.92
678.91
282.30
501.68
184.49
156.19
248.13
491.39
638.99
749.11
269.38
295.67
297.90
539.83
913.94
1069.86
838.04
369.90
365.89
883.71
909.49
1074.73
364.30
203.96
229.87
137.03
225.69
286.03
392.25
169.13
261.61
407.77
543.88
1255.28
793.45
616.91
435.12
532.49
666.72
254.04
140.62
186.54
617.64
598.46
430.39
911.15
156.25
274.46
462.98
482.24
715.93
632.74
535.30
360.33
314.30
362.63
487.59
415.22
723.80
421.14
211.40
521.83
610.21
493.23
373.25
503.53
420.83
274.01
232.85
91.87
91.40
174.31
303.14
312.84
193.97
363.12
347.11
339.05
583.27
618.62
632.09
325.94
193.69
318.00
275.53
331.91
767.45
1217.42
840.89
355.24
277.90
251.60
133.61
501.02
355.89
179.60
583.35
809.38
827.02
287.82
513.90
660.46
437.24
263.81
304.39
334.45
208.42
202.59
1219.30
159.41
763.28
400.80
198.82
443.22
388.37
419.23
414.37
411.78
525.06
612.37
778.80
873.59
568.27
347.72
300.82
634.57
881.93
733.58
849.48
879.01
547.06
294.14
882.48
824.65
612.68
151.06
797.61
1383.80
1295.22
931.85
268.37
194.34
265.67
115.69
671.00
83.61
211.65
220.87
349.81
383.84
411.70
380.37
363.58
303.30
479.67
343.08
340.29
519.01
405.51
451.76
478.50
567.34
524.57
746.03
1042.20
1251.65
1001.55
263.58
126.81
447.94
548.34
867.73
781.34
226.49
364.75
230.55
306.78
591.21
256.79
356.35
725.11
1219.94
609.03
478.82
320.32
387.55
203.23
163.95
210.07
316.55
240.41
329.52
241.13
257.13
689.41
761.66
413.84
313.04
662.70
644.90
195.79
146.36
301.82
341.16
292.78
238.63
629.13
271.71
275.57
239.82
270.19
409.85
518.97
278.93
225.52
164.10
103.07
236.60
310.36
573.03
500.60
383.52
466.87
261.97
411.67
216.81
571.78
887.97
997.43
1045.03
670.86
994.82
289.87
398.08
348.43
419.78
203.99
351.46
631.54
766.94
748.50
1283.45
1878.23
2112.47
1794.82
555.10
666.32
1290.84
1268.45
1183.88
804.17
587.84
474.98
413.49
495.24
716.50
226.82
161.37
261.62
321.87
328.31
214.92
478.30
659.85
331.34
328.44
333.28
2156.15
578.43
473.52
422.70
587.00
477.57
128.58
161.10
220.14
269.01
82.52
193.08
236.52
543.51
379.65
442.30
300.38
233.55
292.51
410.21
230.99
204.41
270.04
340.17
724.58
619.98
700.97
479.10
307.99
751.83
1013.11
1497.26
1923.46
1473.31
288.21
521.64
1257.40
1305.98
887.06
765.32
795.81
589.18
397.90
179.99
195.29
263.79
402.63
250.17
276.57
2237.19
621.71
1065.43
1161.10
1134.18
514.64
754.40
636.33
169.94
455.00
1375.97
1694.41
1031.25
167.19
512.42
904.66
641.46
447.65
590.00
384.31
414.70
475.14
343.13
320.03
523.10
273.99
298.65
680.94
533.08
180.36
391.36
379.85
236.71
297.35
313.91
128.27
524.30
680.33
353.54
146.86
647.32
658.00
735.98
454.16
307.84
222.23
139.91
135.22
287.70
2111.88
391.80
283.15
452.12
292.40
316.88
183.83
450.93
502.74
584.65
510.32
397.30
459.87
548.46
256.72
284.43
226.42
249.10
479.43
475.98
385.13
156.35
213.68
251.10
145.72
312.17
408.76
199.29
267.07
343.78
155.52
302.32
268.71
371.43
539.10
391.90
622.31
735.24
315.04
387.62
480.29
219.98
258.27
155.85
365.86
553.02
485.92
501.58
222.00
265.94
384.72
2168.09
183.53
215.51
353.13
397.82
376.02
461.48
494.25
635.33
576.59
592.41
358.22
261.46
747.48
162.25
366.36
153.13
105.48
110.81
206.65
331.21
218.21
408.41
308.09
480.56
377.24
464.90
340.80
374.39
392.47
333.18
253.85
351.57
444.86
219.28
588.32
738.29
867.95
636.83
403.20
466.03
1228.29
984.42
60.48
316.40
333.23
188.91
401.69
226.28
355.16
512.03
527.96
410.38
471.58
234.04
193.88
159.18
186.18
189.38
195.29
245.42
160.91
264.03
2101.35
636.43
679.10
587.82
478.27
544.16
402.71
251.04
293.24
547.50
461.10
354.19
528.44
813.45
651.73
405.41
328.57
254.86
803.56
1276.86
1007.47
281.93
477.27
256.99
105.42
456.09
387.62
411.81
456.13
338.47
444.72
209.27
248.19
139.05
370.37
523.91
490.96
339.45
649.49
572.51
526.38
351.80
259.58
512.15
556.61
304.80
280.25
421.40
300.94
433.46
215.19
395.41
367.71
628.34
401.34
332.24
407.88
208.56
242.60
135.91
465.80
1150.42
1882.90
2201.90
847.11
328.20
1040.43
806.10
580.20
254.54
478.46
378.31
246.03
550.00
826.01
587.26
276.27
452.32
452.89
189.24
411.78
144.68
94.51
195.47
289.44
224.80
158.65
436.26
576.45
361.67
89.23
193.56
242.14
237.20
268.83
380.90
260.11
137.97
135.74
380.28
2127.80
437.98
432.13
441.05
169.74
508.66
347.67
590.28
1200.05
932.18
459.94
397.49
826.28
953.12
475.70
177.14
290.17
258.09
139.22
238.45
302.35
379.85
320.69
458.15
172.36
573.01
219.59
386.92
353.90
199.24
231.51
241.82
468.09
321.14
307.54
291.34
302.44
306.22
623.77
498.99
601.67
351.28
230.31
147.59
219.25
332.15
496.37
515.67
965.66
1274.43
1053.39
500.38
127.03
474.01
425.15
111.15
308.24
352.94
201.42
224.49
440.00
484.61
469.36
641.05
302.64
261.61
284.59
311.79
308.67
569.40
680.20
384.58
263.48
204.13
248.80
316.71
513.63
416.52
462.98
159.02
281.60
261.47
279.95
402.74
393.76
404.30
533.21
203.57
2719.43
520.75
332.63
412.62
388.89
404.69
359.13
452.85
301.58
191.43
238.56
93.84
231.35
601.82
653.37
563.97
548.80
497.35
267.46
438.23
359.60
168.46
249.39
238.81
331.86
383.78
610.93
332.98
447.72
851.71
1013.02
1177.60
771.73
281.88
911.37
1244.34
987.09
545.65
267.46
344.24
470.02
477.54
529.30
461.25
364.33
251.39
355.87
514.53
378.83
206.55
627.91
226.92
250.61
272.37
374.15
483.88
351.02
445.18
246.18
354.70
321.82
481.97
227.17
463.35
667.64
904.27
931.52
500.46
260.72
510.51
541.82
571.16
256.42
261.32
239.85
1185.67
284.81
380.41
393.63
439.30
430.93
341.28
296.69
378.08
338.69
207.06
45.08
231.58
384.61
225.92
284.92
269.68
330.33
193.41
413.33
541.19
657.32
719.49
507.45
595.07
356.41
166.27
64.31
265.32
365.70
596.03
977.36
1155.20
826.35
762.34
499.76
310.39
477.48
362.97
450.35
232.74
934.04
1364.06
1252.21
578.26
194.61
431.50
737.98
540.36
380.23
664.95
394.86
590.17
650.38
587.73
607.65
792.25
419.66
247.53
195.88
601.94
934.47
1069.48
662.61
60.87
363.36
332.60
372.82
325.99
394.65
414.29
361.79
1185.48
1912.69
1833.37
1015.57
377.35
707.91
1158.11
822.40
593.67
281.65
167.89
268.69
327.78
496.33
450.05
366.95
912.56
1180.92
518.53
343.46
469.70
392.50
517.12
497.30
337.87
439.09
433.06
667.29
489.93
354.90
329.87
352.78
237.15
365.53
384.90
594.15
321.54
327.60
413.71
356.92
314.35
498.39
356.79
225.85
369.47
640.78
536.97
502.16
115.35
476.64
244.06
452.76
216.96
379.08
649.44
489.95
457.60
248.12
461.41
399.05
358.82
225.87
415.52
492.37
443.70
1927.57
491.15
346.24
337.77
377.62
199.58
260.72
394.66
439.08
398.88
323.16
354.78
287.88
763.34
433.88
441.63
692.48
461.67
367.88
345.08
121.47
564.23
667.81
516.62
144.11
286.47
290.20
241.46
285.90
388.69
502.40
601.99
480.33
517.83
374.15
323.11
147.10
153.12
1979.49
317.80
423.38
539.21
557.95
284.54
285.76
213.91
319.32
221.58
225.01
323.63
365.93
613.06
270.77
448.33
342.32
360.31
230.61
72.90
225.96
349.73
441.95
288.81
419.05
553.26
751.90
457.57
438.42
376.02
355.63
401.16
319.60
296.50
323.52
423.72
544.48
812.17
1270.89
1398.04
1353.73
645.94
361.28
221.30
799.03
1075.10
1003.43
489.64
156.74
371.67
655.30
159.08
359.99
601.83
468.87
128.13
537.36
226.56
422.80
311.53
248.35
194.72
254.08
383.69
311.50
484.41
563.64
583.80
299.05
295.10
608.44
279.69
329.13
194.00
353.62
419.91
580.37
359.23
44.88
388.10
533.64
772.96
987.68
516.25
244.47
560.04
551.00
272.11
736.20
474.20
263.96
469.16
298.31
265.05
402.61
484.01
379.50
287.76
391.33
374.02
182.27
534.51
557.35
712.22
455.35
361.16
170.05
267.36
391.83
275.49
432.10
294.55
106.45
1834.68
223.82
517.40
735.82
1002.75
1135.29
378.22
223.71
526.67
249.65
321.62
415.00
1849.27
639.95
496.25
273.27
110.92
430.38
395.74
476.94
181.66
334.57
560.01
746.57
327.35
591.68
516.68
647.51
497.10
206.60
601.96
862.57
456.10
272.98
443.79
632.21
376.98
318.95
360.44
322.60
144.94
283.91
313.57
295.35
368.87
622.79
488.45
364.89
462.41
302.64
1937.38
302.64
205.02
314.99
160.53
229.61
285.75
486.40
412.71
225.48
566.20
836.61
805.68
1012.52
323.32
118.36
461.32
413.47
133.14
270.47
517.01
712.28
417.95
220.91
180.01
1808.28
298.21
446.28
389.06
162.04
316.62
387.17
165.39
157.34
232.55
614.19
815.66
852.91
1187.35
949.88
710.00
368.16
298.69
357.45
243.95
298.62
32.36
278.69
561.00
494.09
397.24
353.91
495.98
443.24
633.03
404.92
234.03
360.92
203.60
146.10
554.09
806.37
1284.43
1712.16
1897.29
1068.20
394.14
1504.31
1692.49
1333.60
1006.21
725.50
227.29
464.33
452.40
394.77
266.23
318.48
270.14
209.14
182.92
284.94
494.37
377.87
543.47
415.92
416.79
521.56
403.14
274.10
307.01
182.32
274.97
148.97
156.26
128.09
269.84
440.86
298.49
1760.88
366.87
429.65
623.57
716.94
577.52
299.53
292.79
240.44
213.10
323.01
417.52
383.83
816.84
352.52
377.68
313.78
143.56
262.68
447.99
311.42
409.05
274.17
218.46
366.31
312.02
399.85
494.86
580.40
358.20
300.31
722.68
559.41
159.46
432.39
409.69
464.16
585.51
1978.96
650.88
620.05
411.04
447.26
470.00
157.18
566.25
891.17
846.84
598.24
453.45
412.86
267.63
381.90
473.65
554.66
362.49
306.38
357.51
353.79
284.91
412.69
377.00
237.58
1748.54
414.87
300.08
345.57
324.93
353.22
453.21
452.78
498.87
349.47
176.86
279.96
796.43
1625.69
2146.47
1695.64
502.61
727.39
1270.34
1412.40
870.67
530.30
113.04
251.98
1157.63
671.44
762.96
469.99
361.43
256.92
313.94
153.28
287.96
385.58
450.54
195.93
468.38
611.40
650.09
224.12
284.06
227.23
241.00
338.38
382.64
220.25
149.36
239.79
314.54
1751.88
732.04
599.31
455.53
453.22
399.53
467.99
492.08
510.67
466.06
61.61
287.99
698.64
1065.54
240.27
179.66
286.66
524.18
557.73
661.20
909.69
800.16
341.60
321.49
335.66
1705.06
229.10
64.14
224.29
572.90
92.87
238.69
319.40
289.47
197.60
280.79
379.14
254.44
910.50
361.13
371.99
491.66
346.08
191.73
262.19
405.88
92.16
297.83
243.32
267.10
221.50
517.73
606.92
359.99
334.66
330.49
319.72
168.94
381.69
468.77
338.38
485.89
362.87
1823.38
303.01
281.29
500.45
660.78
918.42
1079.63
758.43
843.76
549.45
397.48
303.96
1628.52
1730.34
1339.54
658.45
269.04
375.25
375.25
354.06
320.36
343.28
459.08
504.82
1000.39
540.05
309.24
263.70
230.86
388.13
642.77
340.01
42.10
153.92
347.58
460.23
278.16
490.48
634.40
543.28
348.15
252.10
412.92
346.17
402.69
209.07
252.26
360.34
224.37
1761.55
415.96
517.28
466.88
157.02
179.09
170.32
234.21
397.59
479.01
857.88
1355.30
1842.66
1542.94
670.38
249.11
890.94
1207.76
1248.72
924.69
493.14
225.05
227.53
335.39
1211.31
706.59
531.14
313.83
144.13
216.00
400.42
440.16
560.71
510.92
381.44
317.43
130.48
361.39
431.35
338.99
346.85
311.59
220.60
239.10
282.02
471.19
399.43
110.53
421.48
312.18
325.26
378.85
314.05
408.22
583.39
577.51
666.09
642.01
501.49
379.40
241.91
185.02
1756.76
431.52
410.44
639.92
745.93
636.75
549.97
505.56
298.26
355.70
796.77
705.52
142.15
318.56
277.38
209.99
344.76
249.89
268.56
387.70
461.58
312.65
470.16
421.23
247.20
1663.34
452.30
529.14
725.98
1094.55
884.20
305.30
461.46
162.88
311.74
566.67
651.41
396.24
812.98
1572.33
1706.58
913.19
530.68
255.84
228.06
178.58
224.70
294.25
384.31
571.76
649.99
663.73
795.53
495.69
184.31
348.52
542.07
483.24
204.79
431.02
685.09
845.01
1357.23
530.87
779.95
677.42
985.87
711.17
432.76
290.76
447.76
197.73
304.88
434.99
673.99
204.88
565.67
517.70
669.01
558.16
190.93
184.68
311.49
401.96
459.83
551.72
1546.68
329.56
340.28
372.57
370.92
547.11
819.19
552.88
114.00
470.93
762.83
479.19
262.38
426.36
430.51
689.38
432.07
552.61
570.46
460.96
458.33
354.75
202.27
321.01
382.30
1670.10
456.14
231.04
304.74
231.69
376.87
490.80
114.99
176.33
209.19
152.63
278.73
110.26
606.62
284.84
417.79
316.75
455.87
340.38
212.55
362.33
571.41
416.18
404.82
424.82
577.64
709.75
575.80
253.62
418.88
305.54
492.56
386.10
308.85
405.86
307.70
367.09
340.92
1708.88
446.15
664.36
989.94
740.82
405.48
405.46
696.64
682.46
512.98
65.27
411.25
1182.51
354.93
438.15
295.03
365.45
871.81
1171.81
1334.00
873.30
190.44
349.99
962.07
1250.18
553.58
266.10
178.98
327.33
473.80
448.13
556.28
553.45
619.43
286.34
153.40
1477.73
285.13
365.48
321.92
407.15
497.99
526.45
533.22
192.25
379.15
227.72
248.41
231.67
667.86
272.79
292.38
389.37
532.26
444.98
432.24
370.93
348.46
459.16
409.00
488.83
411.23
609.60
475.75
880.39
1141.47
1250.67
522.32
313.26
849.22
829.54
697.22
186.44
214.54
428.35
459.31
559.21
588.19
553.61
588.24
507.47
305.14
674.61
689.99
258.22
455.55
2254.14
426.61
308.29
84.06
350.59
471.86
483.27
359.07
498.79
276.68
519.68
573.38
452.80
576.87
183.87
300.04
424.40
315.57
212.59
405.08
170.28
195.80
293.22
191.91
291.19
299.64
546.69
468.80
623.72
962.77
1050.50
600.35
360.92
432.14
710.43
572.70
231.70
491.12
1206.35
246.48
301.31
440.80
651.39
413.47
730.18
539.84
453.94
260.94
336.18
109.06
258.54
504.81
394.97
299.05
395.50
358.98
421.33
207.05
359.20
582.49
741.38
336.41
253.47
381.45
459.53
217.19
135.61
252.58
81.93
239.99
279.98
223.74
252.41
215.39
190.42
227.97
1824.02
1589.89
701.72
178.80
797.74
1067.07
399.23
411.71
495.73
190.66
370.59
454.27
1125.99
358.11
437.18
803.97
576.22
492.78
449.88
394.65
142.77
305.55
234.87
283.85
291.11
233.46
282.15
385.61
336.74
451.18
129.50
338.86
300.00
439.31
428.41
537.60
498.75
1717.22
272.98
126.53
354.42
301.60
409.02
424.09
436.34
218.64
258.38
284.69
310.20
301.08
790.90
517.62
527.01
298.95
402.71
349.68
325.48
282.82
296.08
357.51
493.87
622.26
659.97
860.00
510.01
334.19
318.53
413.98
286.93
355.75
154.79
159.02
440.08
694.67
638.08
881.92
385.81
496.16
688.80
635.93
175.69
496.53
759.95
917.19
956.55
707.27
486.92
259.33
391.06
346.55
205.43
335.66
227.84
248.36
193.42
460.98
445.16
260.90
583.54
1464.39
844.84
652.47
217.89
354.39
281.89
161.83
433.80
474.56
337.77
339.41
265.02
457.66
848.98
722.03
480.64
305.98
449.77
571.44
615.13
283.89
287.79
283.42
198.38
193.90
1070.22
565.97
576.59
559.19
567.54
275.17
190.10
128.33
406.33
475.30
803.69
676.77
370.71
382.93
661.56
918.49
916.09
500.36
282.42
1110.41
1320.99
931.62
483.58
354.84
1452.60
417.13
750.17
887.55
708.98
160.27
367.71
278.50
248.54
477.36
538.37
721.08
1097.72
913.11
789.51
485.49
353.38
362.06
285.17
504.20
397.01
204.79
117.70
587.92
567.82
739.13
495.48
714.26
789.54
353.12
161.99
499.58
463.77
266.87
311.13
400.95
512.92
1184.28
399.37
148.24
305.07
196.30
193.11
286.21
607.04
281.66
341.40
420.41
210.97
257.98
340.71
337.72
121.66
323.06
141.01
464.06
592.50
367.90
168.72
373.16
495.05
769.14
702.34
847.09
521.06
309.92
1081.50
1608.75
1131.51
250.61
489.11
592.39
535.13
306.51
1068.46
289.15
352.18
484.88
197.56
322.55
477.82
521.95
392.03
342.10
289.69
435.58
456.67
601.34
343.08
334.58
393.01
405.82
526.64
362.27
465.48
368.22
472.68
478.93
544.26
586.52
465.72
330.73
258.05
115.69
126.19
225.40
248.48
317.47
574.51
315.98
402.41
482.11
1480.36
592.95
467.75
271.72
247.70
554.33
516.41
416.80
221.17
282.61
442.91
776.35
1041.01
692.82
148.95
225.21
54.51
296.67
445.24
680.49
922.52
1102.05
1048.52
346.46
548.64
1469.22
1168.38
494.76
373.60
361.36
520.72
244.77
274.88
295.70
354.97
424.08
361.87
541.68
282.17
111.28
185.00
371.16
579.22
648.44
555.72
554.78
255.08
467.81
422.09
136.48
375.64
422.73
664.21
1083.71
935.71
828.38
265.65
325.96
390.26
345.03
288.40
215.68
646.55
40.77
418.07
357.40
184.37
485.61
502.77
560.42
579.52
274.99
681.87
639.14
484.42
471.11
212.18
307.35
468.97
635.85
678.51
711.94
764.26
476.36
463.68
205.93
172.25
1381.85
304.41
228.32
309.72
471.74
388.89
295.06
256.80
304.30
365.69
247.46
249.27
354.19
764.66
276.80
272.26
325.60
400.96
734.77
620.53
492.36
290.47
444.04
506.96
666.35
600.31
396.35
230.17
349.07
378.94
299.56
687.00
946.45
969.03
803.60
437.82
253.00
445.96
713.43
521.14
610.57
475.60
601.38
692.67
726.79
625.78
365.46
280.16
415.90
370.68
1291.95
478.57
122.48
456.40
427.34
674.28
733.01
446.77
274.57
230.69
335.30
247.53
215.50
277.88
172.15
463.28
350.87
433.13
201.51
223.31
379.36
423.05
282.75
265.22
250.99
245.96
321.40
291.89
798.09
1236.91
1433.36
1104.61
378.11
687.69
945.81
1009.33
876.66
2273.61
55.56
384.29
511.01
341.90
540.93
482.40
382.15
293.58
248.62
466.94
467.95
473.49
317.73
374.78
453.77
435.82
289.71
164.39
265.66
332.68
580.14
569.36
374.91
255.61
1450.19
220.32
211.76
282.98
341.34
278.77
517.09
448.41
257.41
386.16
598.50
255.46
456.94
764.71
482.85
505.25
794.97
743.00
464.73
223.07
76.05
261.45
328.98
332.57
198.60
1918.67
1528.88
1055.22
640.70
422.73
494.54
628.19
621.21
664.92
710.15
438.14
129.74
279.27
348.62
295.72
319.11
635.10
599.28
445.82
256.74
216.70
294.65
626.72
251.52
358.04
1223.43
390.16
372.54
599.28
296.01
351.88
105.83
191.62
190.17
202.19
217.63
406.67
575.48
764.66
364.35
361.72
240.05
307.66
437.04
386.43
160.70
214.64
362.72
688.72
1239.34
1500.50
1017.32
265.54
524.27
382.67
409.14
364.20
135.56
273.44
424.19
395.28
376.00
243.28
150.30
116.45
285.29
294.86
423.60
323.53
240.00
530.99
214.49
274.00
374.07
285.06
1460.91
920.87
1084.83
741.16
359.00
288.63
719.76
310.73
370.91
389.24
676.79
466.81
1376.38
206.96
435.70
189.01
432.00
322.83
260.69
295.98
390.50
315.42
449.92
636.43
577.05
989.34
799.93
679.99
572.48
426.38
403.31
331.54
344.71
472.20
489.68
427.09
239.28
1125.37
301.53
443.27
216.13
177.46
353.59
349.10
401.55
143.82
198.08
207.19
588.98
740.98
927.47
355.80
405.55
553.91
347.62
507.61
676.94
717.34
281.68
314.16
686.20
735.88
1264.22
289.79
571.13
644.91
587.71
580.54
654.09
621.73
648.28
431.15
342.11
279.57
357.26
432.38
539.30
594.50
988.88
1294.13
1068.29
747.11
152.17
313.97
370.28
492.41
342.94
586.46
286.39
769.89
1635.71
1780.12
1190.61
747.82
243.13
272.61
371.31
677.23
815.62
1255.87
1050.57
227.42
428.36
813.73
972.06
656.37
223.18
413.07
393.75
455.37
999.62
331.46
347.25
367.38
372.01
452.81
515.14
354.19
316.77
608.42
533.13
496.40
361.90
627.35
238.61
153.36
354.19
391.73
347.55
355.57
260.07
180.91
199.33
452.63
533.28
390.32
690.59
328.59
85.33
487.86
744.89
935.80
1034.38
754.73
600.62
155.53
382.23
712.92
1220.22
963.30
461.15
181.23
278.24
370.20
360.11
322.75
328.02
440.13
378.82
380.95
991.74
622.40
787.24
617.74
348.80
380.65
359.09
613.62
605.70
333.95
359.48
411.79
216.13
569.45
371.04
350.66
541.22
704.08
524.99
396.76
425.84
238.35
420.12
147.40
571.18
1326.90
241.70
192.17
201.16
216.85
390.40
350.39
379.80
489.80
297.02
302.76
212.63
464.81
742.66
278.66
162.59
192.73
425.25
472.26
408.57
305.59
366.84
262.44
168.16
134.56
388.91
391.27
320.05
260.95
208.94
529.21
472.94
737.42
889.00
816.03
541.15
409.33
297.04
743.39
119.83
468.92
574.76
859.92
495.79
229.44
301.49
163.17
261.39
341.59
363.71
199.58
548.91
647.59
476.12
503.33
625.92
481.37
294.56
261.92
155.47
232.10
352.74
453.22
1235.54
496.94
62.40
477.54
387.37
284.08
406.46
216.41
318.34
426.83
464.37
261.79
303.84
595.57
615.14
649.08
675.25
491.76
264.22
226.90
285.16
387.31
424.51
834.57
472.69
432.87
299.79
315.91
267.28
727.38
1092.01
989.18
533.48
229.68
271.55
346.65
271.17
136.96
157.45
461.51
541.27
592.81
582.31
702.80
598.75
761.42
446.91
252.89
506.19
324.25
622.30
774.48
499.89
302.46
439.19
278.45
415.91
354.61
533.85
506.24
490.80
317.03
392.85
1165.72
334.22
121.14
234.09
535.69
859.15
1134.29
837.45
319.50
602.46
1547.69
1697.81
1183.85
617.68
1164.48
907.52
514.52
505.68
654.45
443.34
263.25
205.90
305.95
259.53
338.92
370.74
563.79
911.35
1463.12
1632.83
1045.82
291.71
207.02
412.57
665.04
702.27
553.93
224.54
267.66
86.51
263.40
567.12
709.31
613.22
94.80
544.27
547.92
617.67
316.44
559.85
451.87
402.37
613.96
519.70
653.27
680.53
510.78
232.64
142.58
245.80
215.05
1465.91
1155.48
582.54
472.37
117.53
355.64
133.61
297.84
289.28
312.59
352.16
242.77
247.83
612.81
192.91
165.22
248.99
176.04
175.79
34.42
195.05
93.83
392.99
192.19
222.63
1125.18
960.76
1068.04
1078.19
600.02
327.06
138.76
872.87
1265.43
716.11
2354.27
2833.94
2794.29
2564.15
1100.16
544.82
1535.78
1603.31
1692.36
1565.75
1011.00
581.01
310.02
663.74
257.44
242.85
294.42
528.60
340.17
374.35
179.01
97.85
224.27
316.50
96.41
309.93
299.69
319.41
496.59
544.91
493.92
518.62
478.19
450.96
506.31
423.24
287.02
297.77
1026.33
400.90
476.30
367.32
347.71
402.64
560.17
327.26
421.14
649.13
683.06
522.00
779.06
872.43
179.79
292.43
692.14
433.00
229.41
341.73
242.88
324.92
241.94
334.59
343.34
325.32
535.90
191.23
302.48
113.17
229.26
71.69
491.75
503.97
574.62
400.48
357.32
270.94
917.13
483.55
355.21
397.34
286.88
226.39
219.14
395.08
364.96
292.60
355.72
181.88
336.57
634.60
348.33
257.37
481.80
458.97
710.43
431.48
345.62
266.16
186.80
299.77
440.32
493.93
909.03
623.25
198.95
430.04
667.78
386.15
84.50
200.37
480.08
396.31
323.61
492.23
932.47
487.52
323.24
168.85
178.57
250.54
455.04
354.88
308.58
337.65
291.09
319.70
335.30
1021.58
960.39
1025.03
827.02
576.32
344.66
163.46
525.91
536.26
497.60
159.07
80.34
668.03
297.47
625.74
818.23
663.67
528.80
388.53
609.38
384.35
260.61
365.95
725.11
783.24
537.97
257.21
627.13
427.67
372.01
416.54
231.33
534.60
1419.54
1114.28
542.87
305.92
714.35
0.00
480.88
1114.79
1350.59
1230.38
509.15
204.79
171.26
300.13
398.89
473.50
1179.49
481.39
352.76
350.94
370.14
632.50
687.37
530.70
112.27
366.06
82.67
355.55
394.71
364.91
240.12
250.10
254.52
233.69
173.23
280.53
236.67
310.12
272.73
406.57
479.38
461.01
709.74
167.62
326.87
668.37
353.69
161.93
386.19
199.00
228.70
375.73
300.58
380.99
2124.43
351.05
262.17
178.62
231.42
291.38
307.48
277.36
316.71
449.55
805.78
961.18
830.40
714.71
690.86
728.14
402.42
298.34
128.72
286.58
414.98
271.84
165.74
232.66
611.64
2405.02
941.63
269.99
829.92
1581.47
1379.77
1196.13
982.99
558.20
355.75
132.85
337.32
201.81
209.99
259.68
358.66
597.66
419.33
276.71
489.02
201.28
324.28
373.14
771.47
430.34
199.97
344.73
313.25
405.67
494.42
390.22
276.06
206.72
347.51
459.25
345.78
247.51
932.89
264.07
529.20
430.24
416.20
225.18
417.70
168.54
797.11
916.65
795.28
424.95
470.95
732.29
237.84
440.90
239.58
216.71
316.51
355.72
308.23
341.19
244.11
253.43
419.65
1148.77
283.18
480.55
217.00
313.55
268.86
154.33
394.85
329.28
433.50
265.83
199.55
271.19
513.65
303.94
372.02
357.79
268.33
300.77
283.62
241.60
318.55
410.63
394.23
323.28
404.85
292.90
300.11
204.06
382.57
393.51
651.09
451.46
630.20
298.49
327.78
290.34
474.58
976.76
468.32
140.18
383.55
455.56
388.17
226.48
402.94
503.98
582.24
384.28
363.49
220.64
546.32
353.06
447.63
377.40
57.56
341.40
740.04
804.21
420.73
326.69
310.84
457.43
256.34
424.40
608.46
560.91
540.92
574.42
454.21
521.77
422.13
563.45
309.62
129.78
530.59
1315.59
254.47
364.67
391.30
261.87
224.65
219.89
186.66
209.55
448.84
418.42
227.89
474.29
1298.60
1187.29
355.08
290.77
985.31
665.24
236.39
483.40
867.21
1068.80
830.25
383.91
73.81
420.19
560.63
529.83
302.20
101.31
211.72
174.19
283.35
211.30
587.17
450.13
1366.90
341.71
293.78
238.99
504.69
812.94
826.25
652.02
174.15
784.22
686.25
274.21
1467.58
1002.67
711.23
387.40
387.47
224.59
408.81
392.25
400.11
77.66
118.63
199.54
2258.53
398.55
372.94
309.75
244.42
266.89
215.72
489.74
318.30
203.56
447.80
709.84
404.42
859.62
359.86
309.80
388.92
215.95
406.49
712.67
515.82
403.10
197.90
546.77
392.42
406.15
394.99
375.12
542.92
502.61
520.60
493.68
410.50
398.68
282.81
304.47
452.50
306.53
2106.20
714.04
687.33
563.72
129.04
455.38
623.17
500.77
497.50
305.85
328.84
271.31
408.82
648.70
314.21
397.54
350.17
270.34
143.18
138.61
202.70
398.29
563.80
854.88
1098.49
1720.32
715.59
614.31
342.56
320.00
236.65
426.76
914.16
791.66
668.45
656.94
701.81
446.17
591.64
399.37
376.30
420.96
425.97
211.91
200.06
400.97
292.44
350.24
331.13
403.04
459.88
545.73
661.08
598.36
682.45
485.78
247.78
170.08
249.13
312.69
210.82
195.19
2152.12
694.64
565.96
499.97
409.37
296.12
277.95
292.21
217.70
430.75
131.97
189.94
525.18
1128.84
1033.51
766.27
464.81
499.70
369.58
479.79
245.18
259.45
179.41
20.07
267.79
859.72
785.53
832.07
309.58
241.94
605.16
959.11
430.25
233.91
544.54
614.47
671.23
717.91
288.78
306.43
0.00
296.82
452.18
526.42
295.11
355.10
445.10
513.80
233.80
364.10
467.71
318.86
443.53
806.62
1059.13
808.43
227.57
411.40
224.21
634.08
546.32
550.76
556.50
168.28
21.93
348.46
493.99
395.34
167.15
463.14
504.38
466.87
266.49
409.62
154.92
537.23
357.63
343.90
434.41
486.16
367.79
270.67
476.16
535.40
414.98
357.08
185.15
274.89
539.35
568.86
506.12
220.86
305.97
227.93
316.33
184.48
254.60
525.14
345.17
287.42
1251.75
471.08
602.34
418.92
1005.33
1342.67
573.23
274.33
284.18
247.65
373.68
351.25
2011.65
371.63
502.97
505.76
513.22
569.31
454.05
424.60
206.33
297.76
321.22
224.15
575.96
925.86
294.44
388.25
388.83
338.28
488.85
822.81
671.69
555.09
633.27
537.84
510.80
306.54
314.53
298.68
322.28
469.41
219.82
127.85
462.86
523.35
447.23
249.39
129.85
131.72
2193.32
440.72
888.40
450.05
222.48
671.29
600.76
313.75
249.07
568.22
489.38
380.62
336.76
166.22
283.99
375.76
381.51
479.36
526.23
810.98
703.98
545.74
275.76
738.84
595.16
628.82
519.42
508.34
437.81
504.09
503.32
522.68
215.87
125.16
114.29
357.60
348.47
516.41
935.16
452.84
313.24
803.16
565.61
496.68
216.82
301.72
366.60
275.80
269.77
283.75
1224.44
237.48
296.96
420.80
513.73
388.41
396.18
600.86
390.46
361.87
240.48
199.64
264.35
638.45
217.91
436.26
414.90
344.64
411.24
507.27
463.84
512.78
526.52
198.28
370.98
220.98
228.53
305.79
248.95
260.92
523.27
331.02
414.47
330.67
404.89
461.43
484.74
593.72
2180.65
1676.70
1736.91
1094.11
454.84
1542.98
1930.54
1980.76
1208.90
668.64
174.69
363.31
384.91
184.28
187.69
301.51
269.29
373.39
245.47
277.47
255.68
138.89
332.87
427.29
2094.23
529.16
600.29
556.25
547.20
660.91
843.33
781.33
680.47
885.08
106.23
549.67
2799.41
670.71
380.64
387.00
250.42
258.72
210.67
386.12
393.26
386.00
396.56
291.72
361.39
801.42
390.17
266.75
199.51
167.95
385.17
528.62
384.48
325.41
420.09
333.69
411.51
359.06
565.38
436.24
677.44
856.62
965.45
1190.13
987.23
455.93
847.84
1594.95
1582.01
959.22
341.07
443.48
412.00
515.43
504.10
632.79
651.37
310.91
311.20
233.45
229.81
232.42
359.12
192.75
176.93
249.00
218.48
488.41
519.09
529.86
511.67
354.52
47.35
359.53
252.15
260.45
135.56
205.48
221.32
493.61
486.59
411.94
400.92
389.43
343.52
209.61
460.04
2321.63
864.16
603.32
244.46
343.79
660.26
424.13
339.50
339.85
746.10
900.85
836.81
170.98
513.10
413.82
296.45
306.52
898.78
930.48
205.49
612.28
462.16
244.51
223.92
286.35
678.89
667.35
681.23
404.89
186.99
29.30
285.20
364.61
309.43
638.82
1322.91
1658.13
1878.44
275.30
634.25
1160.87
1074.83
484.42
148.25
356.16
490.13
421.94
334.13
344.18
1198.31
386.56
293.48
234.44
147.08
324.28
384.93
450.36
364.00
343.99
424.51
296.17
299.55
368.72
283.37
480.46
625.06
550.97
466.13
657.82
465.88
416.55
208.54
300.92
278.22
122.69
208.89
94.63
383.67
418.20
545.42
555.27
340.82
112.58
177.37
191.66
147.21
244.21
1995.04
418.92
318.86
410.13
446.51
526.52
151.59
253.00
197.68
365.49
500.14
476.82
286.05
769.08
435.98
610.84
575.74
421.66
448.04
188.30
403.84
461.05
330.22
304.18
581.48
675.42
786.39
561.73
210.16
275.74
415.97
453.16
601.44
582.61
338.50
150.90
158.30
545.06
925.22
325.51
433.05
508.92
619.65
354.18
301.46
387.74
272.09
369.40
433.90
225.73
402.51
392.70
238.83
302.70
570.49
1006.95
1037.88
802.53
240.07
406.08
779.80
498.96
261.43
488.30
467.04
513.21
597.49
517.32
253.87
392.97
242.29
312.51
310.65
165.60
413.79
318.23
610.89
636.64
575.50
662.55
407.34
261.67
843.43
422.10
180.98
187.20
352.90
388.26
823.94
481.06
371.21
388.71
135.43
568.01
707.89
389.87
254.31
486.67
540.44
586.19
379.86
342.68
761.02
872.93
180.78
356.05
402.26
419.91
368.58
482.34
396.72
521.94
732.28
371.84
193.74
90.19
243.48
313.71
310.00
324.30
276.58
486.18
523.99
361.10
325.62
373.63
467.38
347.00
392.24
266.13
331.39
312.42
320.92
290.78
243.07
329.63
436.88
324.68
368.48
503.07
504.29
573.14
598.16
584.88
463.92
256.33
116.18
546.76
330.74
323.91
302.91
1774.54
290.46
371.96
406.61
365.97
326.46
356.34
216.19
310.06
550.09
283.57
162.28
406.19
600.89
262.11
565.92
418.41
318.65
353.24
355.71
243.42
395.51
294.06
368.60
413.84
332.92
295.05
570.18
937.60
604.58
477.98
419.22
292.02
271.48
354.26
163.59
145.47
163.67
2081.54
244.26
261.51
481.34
291.38
526.58
299.24
266.20
101.96
270.12
405.05
444.27
233.30
650.82
308.59
294.22
470.68
625.35
369.02
216.44
416.06
293.66
178.20
275.45
238.79
227.74
364.91
595.48
629.69
686.31
257.16
761.84
348.00
465.14
596.03
466.31
313.17
423.48
1149.04
356.96
409.85
78.65
226.53
266.21
279.25
215.97
232.24
271.11
270.65
293.10
334.68
411.11
480.05
430.22
281.31
221.11
388.48
295.82
199.53
131.09
155.26
625.41
661.81
656.30
726.90
279.98
267.90
202.90
331.02
262.12
241.84
349.72
266.56
252.47
181.06
183.26
434.19
326.06
244.68
434.85
521.06
552.59
469.85
362.39
471.29
449.94
673.44
816.34
380.06
188.14
1044.01
1005.75
777.84
705.49
504.14
240.56
478.68
750.21
276.16
219.35
2488.87
325.05
222.96
296.65
641.06
756.29
590.55
320.68
525.03
178.86
371.17
615.90
428.85
546.37
378.24
510.90
486.55
304.56
260.77
254.39
375.57
424.34
404.41
539.22
496.99
160.42
321.04
123.23
294.49
259.71
415.08
457.38
622.71
506.13
587.65
501.19
951.50
681.43
1211.62
655.10
1030.55
957.42
333.26
369.33
664.19
741.85
517.50
799.98
1265.45
306.30
402.06
478.81
511.46
316.70
703.75
306.76
493.90
1347.09
2043.77
2878.27
2519.55
1361.24
297.25
1594.37
1960.24
1906.04
1314.60
614.83
353.65
587.27
361.45
279.63
329.81
1133.53
377.66
213.99
144.49
126.86
254.71
243.07
415.49
654.04
624.23
523.93
277.49
212.02
529.48
264.43
884.75
876.30
586.86
503.01
354.59
284.98
552.60
881.01
1479.71
1054.47
513.67
543.71
749.07
539.98
589.08
471.81
353.56
338.45
718.03
840.86
532.77
310.87
1314.33
537.48
272.68
265.56
301.39
171.61
211.79
450.66
488.57
299.67
394.31
311.47
289.76
662.09
424.95
365.53
431.22
747.29
961.07
821.49
379.10
290.01
368.28
188.39
164.46
559.44
345.31
367.85
395.69
358.55
365.57
294.94
295.91
166.44
273.41
382.02
324.77
336.26
436.16
695.79
868.08
454.54
278.11
224.85
389.53
292.14
76.13
193.06
264.86
390.08
1701.57
264.38
347.35
421.70
452.24
403.05
339.87
248.48
387.03
318.59
242.99
269.75
340.63
679.88
425.33
380.32
300.05
205.41
180.00
237.10
268.21
423.34
577.18
542.13
604.01
272.34
506.31
459.51
273.00
270.51
198.28
198.93
467.52
230.04
279.62
633.64
314.99
702.71
1913.01
1474.91
1759.31
1674.42
1079.45
285.23
563.83
954.91
1002.22
610.05
699.29
596.27
508.21
367.83
257.95
500.62
942.71
1059.81
446.77
331.74
721.90
814.29
361.58
1066.18
1840.39
1536.80
510.93
881.19
1120.40
1214.10
726.14
386.52
191.34
271.18
362.90
1268.92
367.78
379.71
459.28
234.07
186.13
201.99
303.20
282.10
380.59
172.96
475.79
539.35
566.92
496.51
625.04
406.39
176.52
502.46
889.72
797.67
243.32
214.45
368.21
475.59
688.99
487.82
553.26
592.27
466.50
305.20
375.02
269.14
187.34
308.08
345.34
264.27
407.43
196.86
372.52
345.03
484.68
361.98
260.86
297.39
280.09
376.63
346.15
290.20
255.38
1914.52
675.47
631.12
547.69
441.65
259.96
288.93
252.19
280.80
242.23
276.04
216.49
122.58
365.75
288.91
389.94
397.20
541.00
200.58
326.33
568.58
728.33
940.35
1098.85
1175.43
1905.28
1401.99
763.06
606.46
1627.10
2135.18
1366.30
408.23
426.61
147.94
311.05
458.53
384.46
386.39
261.84
406.13
171.06
242.61
147.15
378.49
394.32
413.32
284.35
262.13
1855.58
326.78
208.08
331.30
445.78
649.33
654.98
459.70
304.91
322.66
270.97
285.52
358.17
692.45
239.17
236.09
406.96
287.44
340.40
415.55
344.78
330.41
289.04
419.21
291.77
426.64
422.35
215.19
185.60
425.25
498.23
453.90
332.20
476.25
191.40
442.99
397.70
435.01
323.94
256.40
240.01
268.39
252.90
210.96
151.44
291.30
417.97
270.00
343.87
417.25
282.15
1947.61
427.52
314.82
321.08
38.51
196.95
231.61
420.51
332.23
236.54
364.93
194.96
270.60
510.12
335.13
393.28
858.92
793.93
131.00
238.28
226.93
608.34
413.82
447.28
117.48
1856.96
354.03
163.19
318.94
481.55
528.41
493.26
385.90
806.24
481.65
226.66
359.06
298.79
370.78
235.33
252.77
443.98
208.36
198.24
225.16
407.91
507.50
334.44
413.52
471.90
449.37
390.65
359.88
364.42
230.35
268.68
153.25
465.12
131.20
473.02
615.82
302.44
250.97
1715.98
301.28
373.86
455.13
703.28
632.30
245.97
335.46
753.62
810.58
404.63
228.43
374.90
360.76
432.25
274.49
291.21
498.42
211.64
233.39
343.52
316.30
381.88
173.30
395.85
1881.56
599.07
444.84
447.26
303.87
317.05
330.80
389.70
145.68
436.99
350.94
365.49
653.13
1233.39
475.76
735.12
864.22
364.65
776.72
1274.30
1186.10
687.31
252.99
283.75
467.67
437.31
442.45
441.72
107.55
449.43
240.64
240.32
333.39
281.55
336.60
539.30
460.84
1769.73
515.95
363.91
292.83
250.16
313.86
324.45
496.47
203.89
248.41
418.65
313.98
114.45
600.39
222.49
434.68
477.97
407.07
241.80
387.33
409.99
300.56
243.74
233.18
257.26
208.80
586.45
353.60
363.93
211.84
357.39
293.09
423.42
423.46
437.22
563.19
869.10
943.16
736.67
308.41
223.10
529.61
449.77
189.29
274.49
162.93
106.19
302.31
321.94
516.03
446.03
444.03
304.54
452.46
367.77
266.44
386.01
223.11
249.02
214.03
278.07
525.85
366.29
312.43
425.55
498.59
422.84
479.50
230.98
303.06
312.97
173.97
191.75
303.85
432.86
382.54
1693.81
649.90
588.91
365.09
91.71
439.82
905.99
711.66
168.19
225.26
393.06
494.89
847.41
1455.17
1332.95
1041.32
198.72
931.45
1414.20
893.97
313.36
167.27
204.83
323.29
1298.03
579.45
668.63
1172.69
1167.31
959.58
929.89
523.77
298.24
1044.25
1278.16
877.96
363.62
235.51
572.29
409.55
262.65
245.15
236.06
535.87
567.81
375.15
383.64
109.22
470.67
150.70
324.84
628.72
599.55
766.48
755.69
303.35
445.90
530.56
52.63
122.45
2196.35
458.05
131.19
96.02
345.13
180.20
437.13
519.21
509.58
500.02
362.22
327.89
210.19
336.56
153.58
181.42
354.34
603.32
702.81
309.15
101.96
188.32
341.85
1041.72
1249.49
911.23
572.61
296.82
272.84
184.33
181.31
173.63
330.09
179.15
257.68
170.95
222.20
151.58
687.32
331.66
138.62
349.39
380.28
271.95
365.61
236.00
276.34
420.77
307.53
448.76
175.19
554.63
490.09
249.74
397.33
257.32
269.61
215.39
401.00
470.52
293.28
91.80
285.93
241.62
342.61
408.26
395.86
529.26
423.32
261.07
448.25
181.12
344.43
293.12
411.33
365.25
1829.02
303.28
355.93
445.40
288.76
326.64
260.42
296.58
138.67
215.65
404.79
221.46
315.76
810.02
367.68
516.22
222.79
330.18
648.69
577.17
412.26
531.57
386.59
301.59
172.44
219.66
331.61
35.34
407.33
326.02
217.30
415.22
489.72
332.76
321.62
268.85
375.13
364.35
584.99
544.05
486.69
349.30
279.34
154.68
158.72
230.83
273.60
218.92
284.48
323.17
266.58
1589.65
576.78
405.60
350.09
322.73
217.71
299.02
233.87
425.73
264.67
426.67
282.08
367.18
704.56
294.14
288.91
335.14
255.49
214.00
347.23
203.25
284.32
291.72
349.03
268.91
518.94
753.68
644.01
454.65
427.14
343.92
261.47
217.28
270.85
463.24
542.90
955.81
944.68
860.53
472.84
359.05
316.85
676.38
440.19
430.01
760.43
1282.97
824.33
260.40
1095.25
1566.47
1159.28
1000.38
554.33
104.04
164.84
250.26
334.57
458.31
664.83
531.90
266.08
522.61
384.85
342.30
463.57
364.71
396.68
478.87
218.69
345.07
191.34
311.17
402.47
365.69
409.75
571.79
956.13
914.98
1167.87
1107.15
902.75
475.96
193.55
327.81
745.42
659.87
889.49
437.02
262.27
298.24
275.32
220.05
326.44
246.80
77.28
202.46
290.78
477.56
1374.41
970.86
804.41
453.93
425.58
350.72
151.02
176.80
172.13
228.55
197.02
381.66
1806.09
599.01
252.64
606.10
923.34
676.41
397.67
154.05
479.38
347.91
169.18
382.74
412.63
357.45
457.74
335.41
402.70
310.09
326.04
483.66
694.84
758.14
811.37
568.46
274.52
1248.95
511.86
360.00
140.95
414.19
365.05
165.03
248.13
189.22
418.67
799.06
948.81
889.15
610.01
201.15
375.25
453.46
506.08
391.14
412.89
468.35
372.94
390.60
404.46
377.95
753.17
453.44
386.41
516.26
665.97
1211.95
1057.57
254.47
751.80
1342.12
970.99
528.94
422.29
546.69
182.38
418.72
345.92
420.40
323.89
73.22
245.10
361.26
324.85
416.57
1411.60
450.05
560.56
775.21
599.74
354.97
439.18
579.15
611.47
990.01
256.77
430.24
1686.17
581.59
257.48
255.71
308.58
283.56
398.36
401.49
358.43
257.35
324.67
365.80
173.33
437.71
353.10
349.55
87.40
147.82
260.33
267.20
304.99
323.39
329.13
280.13
351.29
572.19
1020.31
1785.95
1920.77
1574.93
477.00
361.61
1286.33
1423.70
1079.12
786.11
382.38
1248.32
649.71
871.97
797.56
622.52
349.02
281.39
546.40
476.13
541.88
189.89
185.24
1076.33
293.21
322.06
159.09
373.91
322.94
176.95
318.65
290.07
257.00
564.42
476.27
518.50
586.76
364.81
367.42
255.04
218.24
142.73
292.71
450.03
245.47
427.08
429.57
331.73
454.08
350.55
415.20
434.59
304.66
350.68
593.71
554.97
430.75
302.73
140.55
147.18
341.16
1605.19
213.82
366.05
217.58
261.41
405.05
245.19
302.89
351.39
370.18
427.85
507.53
384.95
934.98
563.91
632.45
757.69
634.95
423.76
375.39
261.61
342.48
424.03
263.53
274.66
1242.55
242.12
146.72
323.21
437.19
445.41
546.88
471.71
218.66
253.76
487.85
358.44
304.10
551.00
231.19
484.88
421.41
426.28
416.73
546.52
1029.72
1077.29
720.11
379.43
752.31
1284.65
670.96
290.71
347.21
366.12
202.92
366.78
344.59
311.39
602.85
971.68
1174.79
1534.97
436.26
485.89
803.68
725.97
483.82
175.43
263.27
225.60
354.59
490.46
370.87
1144.29
536.60
798.45
1008.84
726.45
565.62
251.28
291.22
352.57
334.50
248.33
138.00
1148.45
413.31
306.42
404.51
415.84
143.77
199.21
422.07
254.66
170.12
441.73
1048.48
1035.36
672.33
318.98
413.66
472.14
361.50
197.21
351.80
448.91
334.93
358.75
359.84
274.34
668.75
335.06
157.14
379.39
330.75
229.32
198.95
154.65
356.22
565.30
288.09
335.18
396.81
689.49
482.06
504.98
390.48
205.13
260.79
254.34
767.29
512.95
270.84
298.80
261.71
1582.80
499.94
481.44
503.45
388.78
442.48
511.60
316.11
198.75
181.80
300.18
361.47
309.70
566.05
262.43
387.88
510.30
487.40
692.07
287.31
525.22
571.43
267.89
416.78
290.94
170.45
584.66
440.16
394.16
324.09
304.39
378.97
303.38
157.76
326.07
213.20
220.75
436.18
542.22
502.61
501.80
206.98
170.89
255.65
440.16
336.71
371.89
268.81
259.30
121.64
144.47
1500.92
319.88
406.18
466.79
390.41
336.20
249.69
393.96
426.86
390.48
350.67
344.67
210.85
478.72
248.63
177.26
187.95
194.58
138.96
355.78
568.05
442.99
647.29
515.77
579.61
361.33
383.30
419.80
299.66
428.77
401.29
440.40
214.23
609.43
331.90
318.33
444.91
515.63
445.60
408.69
530.21
460.21
513.30
657.24
495.41
425.24
316.08
188.79
246.12
279.46
330.74
1404.34
189.96
111.44
552.33
152.24
362.55
253.72
408.03
331.45
425.05
380.54
807.38
535.86
697.24
366.75
429.98
293.55
271.32
597.05
797.47
732.67
547.04
224.26
251.73
103.45
1404.25
262.93
255.65
183.27
298.11
307.66
330.55
382.49
268.40
395.36
205.67
781.12
958.99
916.00
379.91
414.64
104.40
318.51
242.44
348.67
328.36
257.34
306.30
266.69
253.60
1540.54
248.56
283.87
218.51
491.42
813.00
635.22
224.01
291.44
159.48
308.75
495.02
244.90
452.09
206.23
400.66
503.52
552.91
416.58
411.73
542.99
491.42
617.32
413.14
366.45
264.02
382.97
168.62
284.42
315.03
205.06
220.50
147.94
415.09
338.46
308.44
315.36
442.20
1482.56
440.96
283.79
306.68
313.51
449.11
306.26
441.54
360.25
392.64
181.83
278.66
438.28
681.01
326.78
113.59
505.06
283.38
303.94
216.73
306.21
341.74
382.38
490.41
565.05
465.46
394.92
53.65
286.50
257.08
266.45
353.58
501.98
387.80
512.82
529.35
610.07
375.37
284.83
188.88
262.89
307.03
512.13
440.84
359.55
300.19
419.11
377.59
403.84
251.36
250.70
1280.52
254.71
337.42
384.52
266.59
147.95
252.78
498.00
396.59
394.31
399.91
858.32
690.72
477.01
225.97
190.84
255.78
296.36
369.58
487.70
470.94
307.69
146.86
216.01
324.79
433.88
457.03
569.86
677.27
704.21
1023.49
676.58
277.36
349.07
503.92
447.02
482.05
569.12
913.63
459.10
526.35
362.45
114.33
350.44
263.41
354.56
585.67
731.62
693.78
534.62
265.59
475.49
440.95
337.56
582.79
569.31
455.27
484.80
245.65
660.84
1004.62
1140.43
395.11
1004.93
1044.23
903.33
560.49
532.34
668.24
425.39
385.89
535.31
681.80
513.60
278.79
1329.25
373.63
468.51
385.13
217.56
399.56
494.22
499.07
270.50
469.26
299.50
299.24
428.40
395.26
178.11
452.44
616.66
370.72
281.91
155.86
223.45
438.76
391.36
344.55
511.83
391.32
525.17
404.74
527.67
689.62
526.33
67.71
132.21
220.30
356.44
408.13
413.69
318.31
1215.70
473.87
254.51
510.11
513.98
411.40
333.02
465.08
432.20
528.17
302.87
200.76
301.91
538.10
207.73
403.24
370.78
227.76
193.39
447.49
545.61
494.70
453.37
460.39
504.07
339.40
345.63
190.69
277.65
355.16
351.27
447.95
531.85
572.87
468.35
332.11
192.09
293.75
293.99
545.24
341.62
323.02
235.52
162.12
157.67
348.11
580.89
295.47
388.45
230.62
112.29
1158.38
180.47
580.56
750.63
800.72
449.37
428.75
139.34
374.53
232.65
204.66
321.63
465.07
874.30
692.53
775.25
550.08
155.35
164.83
217.80
406.62
566.64
385.80
462.91
228.72
407.20
393.72
223.50
368.35
198.78
258.17
534.52
217.85
350.30
347.69
220.23
129.10
320.07
560.17
585.68
687.93
833.25
538.08
524.09
368.48
426.12
156.05
114.84
643.83
510.18
1380.38
838.93
132.46
352.69
327.12
472.67
541.12
368.27
450.36
323.31
435.51
258.68
164.85
435.16
407.76
417.45
273.52
84.48
247.28
191.69
196.00
205.06
438.31
108.86
222.73
1265.80
287.34
293.11
311.28
429.71
307.84
391.95
367.35
529.79
407.14
412.36
411.34
317.64
697.82
253.78
383.07
282.61
362.37
436.16
392.75
364.74
387.04
308.34
276.73
308.59
190.01
298.50
323.65
249.80
422.16
606.56
540.84
414.40
424.71
316.51
169.82
244.79
160.80
1036.10
250.08
265.36
272.88
375.61
259.07
267.61
366.35
349.70
336.02
370.41
220.09
373.75
713.43
443.42
322.17
246.19
363.52
246.80
217.01
287.05
303.06
412.13
264.17
437.58
212.39
491.38
424.81
505.66
516.67
427.53
258.67
315.95
441.80
291.62
255.64
130.11
339.11
456.19
400.21
455.33
812.04
633.25
276.13
323.61
359.70
648.20
399.03
330.72
347.54
499.87
1338.66
768.28
789.05
408.89
232.50
223.32
372.79
306.02
493.27
592.45
527.52
135.02
226.40
311.12
1031.76
812.99
396.45
231.36
254.09
505.17
732.63
592.58
385.71
185.62
159.65
635.29
219.65
189.62
259.71
301.09
171.57
210.07
323.48
314.26
302.76
317.88
295.67
259.46
598.04
427.41
702.78
972.03
1235.92
642.95
425.00
1510.10
1020.03
350.40
316.38
871.20
708.83
269.44
191.42
326.25
258.42
333.60
462.72
495.35
282.90
267.41
188.29
356.37
969.16
306.90
277.70
562.62
572.71
323.25
360.35
393.58
344.85
221.64
136.99
225.97
339.61
694.15
374.43
409.97
258.08
270.58
367.36
247.24
101.28
270.46
254.70
357.37
550.13
535.91
520.73
426.88
588.35
288.86
244.33
161.63
521.25
957.86
310.30
639.38
380.10
164.22
1204.56
515.13
400.89
495.71
343.75
364.97
194.12
285.52
391.89
378.61
356.44
351.26
479.20
401.13
281.76
437.81
452.27
276.45
235.36
392.54
578.24
490.18
480.59
322.76
427.49
354.43
269.20
277.96
285.41
400.49
420.90
361.90
307.79
340.62
333.07
233.72
204.46
376.17
1045.20
380.98
526.78
427.39
490.83
332.89
341.05
245.92
336.38
276.81
339.07
432.14
257.00
906.97
473.23
377.09
489.90
489.81
481.01
387.86
423.38
511.82
657.21
509.28
377.80
371.96
321.31
299.93
323.59
80.22
216.45
377.16
336.79
187.22
442.56
224.55
345.80
785.21
1586.10
476.65
374.14
412.14
276.61
162.05
260.69
513.75
662.23
343.18
270.74
215.26
305.28
572.88
414.41
165.99
60.89
309.35
190.05
236.12
230.96
513.15
245.77
268.90
354.18
313.08
507.64
338.02
313.39
295.40
267.11
365.21
533.19
471.13
145.51
396.68
427.96
666.62
1220.90
391.67
214.57
122.98
398.58
1217.08
1507.44
1321.88
790.42
419.42
910.24
663.88
912.82
505.95
332.67
392.98
447.06
170.42
231.43
294.90
239.36
530.25
378.45
437.10
423.41
551.95
479.42
421.63
285.60
178.40
236.03
287.85
352.71
343.45
125.43
239.97
282.00
962.27
338.07
356.67
176.12
299.88
290.65
204.57
495.22
476.95
485.22
433.45
248.02
277.22
572.64
512.27
457.71
367.07
328.50
228.58
235.30
245.42
349.32
597.46
576.43
356.51
238.38
508.05
268.00
560.32
517.03
426.51
330.63
395.44
256.82
410.52
249.55
401.09
605.03
374.10
380.56
308.73
700.47
347.55
156.07
199.76
468.80
307.89
259.85
304.11
184.46
363.49
814.24
283.52
372.00
411.56
587.72
393.90
425.28
428.91
439.76
330.37
210.25
271.28
425.48
875.92
368.76
241.99
272.90
171.23
418.25
358.38
277.38
351.30
585.02
392.72
327.69
217.10
265.31
472.98
672.46
316.21
270.63
371.37
557.02
393.24
341.18
221.33
463.65
492.84
1250.32
560.77
337.41
529.83
537.20
479.95
591.37
269.85
19.00
307.84
632.46
438.98
238.11
345.43
169.47
532.31
343.78
395.93
476.05
317.89
286.80
229.35
300.93
267.35
291.56
2395.51
182.91
308.16
477.06
428.82
342.36
174.11
165.15
291.54
269.23
647.01
682.28
602.78
597.65
295.59
351.75
210.57
199.82
323.86
456.66
465.99
392.23
354.98
595.94
687.24
726.92
1148.67
1269.26
880.37
267.52
403.82
494.13
778.24
888.98
1087.63
701.88
497.88
1273.84
480.70
408.95
641.58
1191.26
1563.98
1428.01
1553.63
1583.30
952.35
324.79
368.28
459.45
618.08
351.77
363.30
206.99
323.22
293.06
171.30
240.05
154.60
320.78
505.43
1279.12
700.98
609.52
586.51
401.07
112.39
157.95
331.87
249.78
259.31
295.39
334.57
476.28
489.28
399.71
483.72
428.41
351.29
366.91
376.86
211.39
273.67
731.18
917.59
1103.38
1917.76
2369.30
3038.05
2870.57
2558.94
1842.12
442.63
1064.89
2147.08
2695.94
2488.93
2083.33
1599.70
1495.82
915.88
306.19
579.95
586.75
421.61
188.77
471.14
712.71
838.54
1160.06
777.08
648.07
494.37
517.25
739.71
281.04
551.64
524.56
184.95
246.00
239.44
647.01
356.90
215.40
253.76
306.85
379.12
433.42
343.72
306.30
347.70
249.12
425.07
472.25
624.40
534.54
274.67
491.43
410.75
546.34
879.40
753.13
332.09
180.73
246.99
401.08
740.21
565.57
581.29
534.66
432.29
555.47
103.96
272.49
323.57
357.13
428.87
445.38
435.25
460.59
300.62
327.22
206.42
269.57
380.02
523.58
982.33
1559.01
2362.28
2845.53
2370.11
1208.18
393.17
1422.70
1977.67
1547.00
1227.31
1489.71
962.87
376.16
241.08
43.81
379.25
417.32
589.96
547.24
368.26
343.51
293.66
308.14
269.16
496.32
364.93
297.64
227.14
70.79
293.33
207.51
205.18
234.26
0.00
453.40
367.76
445.77
566.84
507.96
540.25
890.76
515.61
292.32
273.81
273.66
377.32
680.73
535.44
725.20
647.56
617.56
276.89
490.69
488.28
444.04
434.74
625.06
465.08
367.75
52.48
326.60
405.58
361.36
387.28
367.06
496.81
476.49
571.35
302.23
266.96
257.46
449.42
409.77
364.66
319.99
424.28
328.84
209.29
1026.36
487.85
451.73
345.84
195.07
225.61
260.98
246.60
327.38
456.14
474.34
709.12
999.27
1103.68
348.02
767.00
1136.67
854.03
190.44
649.95
823.73
953.13
472.16
453.37
1238.92
560.32
418.37
384.08
253.92
179.86
229.26
195.68
84.71
199.12
276.22
157.27
222.07
326.60
263.42
307.99
179.82
311.32
202.08
437.65
372.71
508.48
665.53
581.74
388.25
37.96
1218.73
666.11
320.61
270.21
471.26
449.66
352.39
246.52
519.03
263.12
328.83
420.02
1014.18
264.00
376.32
86.28
445.36
465.41
310.69
512.11
364.36
352.03
289.65
244.84
425.33
723.64
248.78
508.35
395.38
435.05
366.66
453.38
476.98
271.48
131.82
295.71
419.14
240.89
336.98
307.10
456.57
411.85
154.79
322.35
259.61
443.56
354.15
317.94
382.24
348.21
933.58
442.09
417.55
354.92
530.38
474.25
433.46
417.17
320.44
403.14
218.23
38.98
151.76
361.80
327.42
301.20
415.85
441.74
394.12
263.96
128.44
290.58
475.15
466.70
396.77
397.42
541.02
366.09
489.14
437.21
429.73
432.26
476.26
348.99
376.58
244.84
385.00
351.54
316.75
338.32
469.55
315.16
393.73
403.37
434.92
315.34
370.62
476.52
351.66
496.67
369.79
2110.41
143.08
468.16
209.41
18.51
278.96
303.54
186.26
324.49
267.00
297.73
468.98
545.73
1071.48
551.36
536.20
448.64
508.24
395.67
420.73
450.60
279.61
420.74
436.95
148.83
83.06
420.13
182.26
358.34
307.76
211.68
215.92
305.93
312.55
594.21
1115.65
1800.11
1685.10
1394.43
745.62
193.40
192.30
1090.30
1272.39
701.46
266.83
308.87
302.89
387.37
363.92
474.99
391.96
619.47
748.44
607.19
560.38
239.64
301.31
249.04
321.90
398.95
323.60
2589.81
647.19
768.03
483.89
271.85
188.79
196.58
219.28
371.22
278.86
274.84
330.48
338.93
552.60
242.63
188.72
316.60
210.01
345.69
266.47
406.87
468.49
437.60
457.87
479.51
422.50
515.19
662.52
617.50
602.11
588.97
398.31
283.60
254.05
119.40
222.42
351.73
304.19
2136.51
487.36
374.58
408.86
449.45
285.76
286.87
193.76
363.03
271.97
461.75
580.87
793.02
1009.73
614.79
284.30
403.65
107.15
270.68
202.71
278.58
217.59
286.47
390.12
375.49
2032.71
454.53
551.35
676.92
373.41
179.19
291.28
84.32
78.25
313.91
210.47
384.47
513.02
758.56
330.90
292.28
238.51
881.14
1420.10
1175.14
569.85
851.21
1243.69
1379.48
984.10
759.92
167.64
160.00
275.78
492.45
336.89
413.24
435.35
373.11
572.03
349.80
385.56
1122.07
442.97
475.29
494.86
551.51
470.99
522.64
439.52
382.06
381.85
273.52
554.05
576.32
479.02
135.89
189.52
164.96
233.06
273.70
605.19
1005.34
1370.33
1201.19
718.72
215.37
1038.42
530.22
275.09
108.47
212.03
282.10
287.04
586.79
833.28
779.33
364.02
148.28
1203.91
288.85
373.16
212.49
282.43
505.02
417.94
458.00
280.73
570.29
956.82
702.86
437.15
255.17
382.70
463.43
327.63
308.47
320.15
348.30
372.45
308.63
287.96
165.01
160.59
2164.96
217.42
316.06
301.69
278.98
539.23
421.04
311.47
341.63
384.04
459.27
422.51
530.27
1063.08
691.37
595.04
657.57
444.78
455.82
155.86
175.82
280.99
348.64
244.13
363.86
203.61
394.28
246.70
258.72
273.39
116.98
338.61
430.17
343.02
309.59
286.43
383.52
462.67
2187.37
331.68
193.09
202.40
309.34
452.47
667.87
1121.46
1092.57
852.78
358.88
271.36
1328.30
1124.99
1062.83
998.82
201.98
252.97
290.78
256.69
409.33
414.72
484.79
653.30
1391.77
659.65
407.67
242.59
208.14
186.08
337.17
375.63
172.19
128.08
268.18
237.62
2511.48
332.72
292.70
116.14
274.08
323.50
436.10
219.22
348.07
414.76
396.23
618.98
596.25
955.74
548.35
288.41
348.31
331.38
328.52
577.94
515.28
421.01
171.72
202.01
332.32
2301.44
422.48
455.87
172.77
315.94
204.05
375.92
378.93
375.20
353.97
290.50
301.82
337.53
481.18
275.34
408.97
516.65
364.40
245.53
313.06
287.47
267.11
605.41
369.09
317.70
328.89
313.18
349.52
396.92
336.56
245.80
110.79
410.96
425.57
330.76
459.24
694.29
509.79
268.57
410.68
218.73
278.21
196.83
327.73
288.87
254.77
190.17
182.11
152.84
366.70
299.88
2018.19
183.93
366.20
213.12
154.06
291.97
594.14
427.98
261.04
198.25
142.56
150.27
269.32
746.31
325.31
335.57
166.29
222.56
153.01
296.10
217.44
402.64
385.82
498.29
464.08
561.20
604.58
359.42
302.18
360.49
485.33
554.27
497.30
209.95
208.34
780.40
674.31
287.77
959.14
800.12
628.11
291.34
131.72
164.87
502.77
683.54
689.27
475.65
380.91
260.54
217.16
552.58
512.79
585.33
453.53
162.92
575.78
991.70
946.07
702.39
236.46
307.54
236.89
1356.47
288.21
474.95
701.21
563.75
620.91
458.58
256.76
307.71
160.36
269.50
255.38
496.18
766.63
971.64
1167.11
690.80
274.15
593.30
941.71
788.56
661.78
589.48
244.39
1267.92
253.29
233.67
272.71
254.74
267.73
293.94
516.96
291.00
410.94
443.32
472.11
283.30
639.40
369.01
310.75
182.18
411.18
354.47
330.70
477.09
484.17
402.07
408.31
282.19
240.16
367.04
468.93
574.85
660.48
841.19
558.86
233.20
887.24
1040.93
396.42
374.86
313.33
572.37
382.97
371.67
134.92
96.24
143.43
240.36
357.27
348.82
446.75
446.91
494.48
451.03
409.97
290.93
335.89
383.63
281.70
284.92
397.14
330.97
265.03
374.17
501.66
385.51
2044.46
381.80
169.37
243.49
201.58
301.80
279.70
219.23
404.23
212.79
83.94
310.65
206.02
724.98
425.21
388.69
276.68
421.54
451.44
392.47
284.95
278.78
440.75
414.98
410.05
457.48
596.71
416.86
137.37
325.37
234.66
192.71
231.67
259.66
195.11
445.64
472.13
303.46
439.32
457.39
219.70
394.04
303.44
572.61
378.36
405.16
119.06
225.53
191.33
304.47
227.67
1918.06
441.07
247.83
391.45
304.15
248.37
229.43
584.62
454.06
531.47
539.70
464.13
220.80
612.47
285.72
366.20
219.54
307.43
433.15
351.59
135.36
396.18
262.80
263.86
368.30
464.11
688.76
463.94
355.20
260.75
357.46
263.46
398.14
428.50
429.27
466.74
404.59
265.34
333.25
416.73
449.34
227.60
90.11
389.65
672.57
829.11
478.29
259.61
515.53
477.32
630.97
1085.92
650.93
234.35
191.39
245.88
360.52
328.80
487.08
290.36
166.81
172.00
264.89
370.65
675.08
404.99
381.53
501.50
192.45
285.58
322.88
439.84
580.18
522.03
189.94
586.27
2405.45
295.78
507.18
607.57
607.25
646.45
461.29
475.41
446.23
260.31
314.24
358.86
239.60
688.92
313.72
285.48
426.06
495.49
688.24
472.15
276.49
303.34
421.26
536.14
335.50
599.11
381.57
198.12
295.34
518.63
359.14
626.42
777.54
708.07
453.48
375.19
341.62
397.04
202.02
393.68
593.67
470.25
168.60
75.97
241.33
294.06
198.58
279.92
279.26
372.66
455.98
1973.44
920.79
1232.25
1529.59
1153.96
519.22
272.46
542.63
428.14
217.81
158.93
220.11
1112.63
336.10
411.19
524.22
416.64
265.95
177.00
520.00
563.19
390.33
170.16
524.03
584.16
568.02
244.81
325.84
369.32
665.39
506.42
468.19
346.36
271.62
203.07
164.53
237.80
431.77
287.26
206.10
289.20
548.24
490.71
167.52
308.55
314.43
356.30
334.99
522.55
412.79
1907.63
462.02
567.72
528.60
363.37
416.10
94.67
322.64
192.31
177.65
263.90
456.25
379.82
775.89
589.85
368.76
230.73
153.29
536.79
541.67
264.79
157.77
360.07
340.64
255.37
153.37
292.21
325.13
398.52
519.74
476.61
276.78
403.12
400.34
386.01
896.20
1092.15
1112.03
935.56
347.62
124.26
414.11
537.34
148.07
846.15
1561.76
1505.94
780.65
226.11
896.10
1352.40
1131.76
301.24
322.39
135.29
137.24
356.56
690.58
577.71
515.83
266.92
125.96
429.73
614.55
450.29
208.81
513.41
281.93
462.31
333.63
397.21
303.60
368.48
263.71
1197.67
125.51
222.87
298.83
188.17
490.82
475.96
322.21
339.70
293.13
472.84
217.20
178.20
511.95
357.81
435.79
426.60
381.44
544.53
535.71
699.99
608.11
279.37
307.10
409.22
310.95
250.07
317.05
329.60
190.29
354.91
277.81
231.93
315.24
416.30
522.56
421.31
451.67
1906.01
295.89
97.77
73.18
252.40
367.69
349.19
348.34
271.07
291.77
321.60
242.13
314.78
583.46
179.22
285.32
363.81
356.87
241.81
213.63
173.26
186.83
364.98
369.82
431.12
530.92
659.94
846.83
1057.31
763.58
304.70
522.20
955.38
965.87
416.84
333.25
272.96
2081.85
384.26
263.03
363.03
348.16
295.43
398.73
747.48
907.61
775.50
715.08
473.02
1861.57
309.64
365.79
142.61
377.37
602.68
795.91
867.27
189.49
456.32
606.63
473.54
213.61
445.88
254.72
381.47
370.93
565.27
595.99
631.68
623.94
538.11
277.53
362.66
449.80
541.91
289.18
226.13
347.96
349.83
373.90
275.57
444.43
385.26
339.24
318.42
287.46
219.90
1825.20
325.51
405.58
346.08
244.02
326.32
271.21
347.96
321.67
220.16
359.49
258.02
250.89
468.19
149.20
263.55
303.81
310.52
191.95
282.63
361.79
408.09
479.71
538.29
568.94
535.81
600.02
445.19
266.74
256.91
264.66
72.59
378.84
432.61
505.07
471.22
315.91
375.34
327.98
563.43
414.87
503.43
463.18
260.90
188.86
321.52
605.51
486.57
269.69
366.99
183.64
1778.98
249.39
240.52
377.55
521.97
463.83
429.45
354.85
225.45
400.52
386.55
417.58
211.93
430.85
201.92
322.97
248.54
380.24
420.82
281.33
144.25
213.42
273.08
351.03
244.25
126.21
542.27
295.98
155.07
258.97
392.79
377.64
257.00
410.09
447.22
473.60
292.41
307.89
330.81
291.50
379.31
267.14
384.43
282.47
440.68
396.31
273.70
331.54
341.41
115.51
183.22
1811.22
371.07
412.08
400.48
137.58
337.71
394.62
322.21
231.77
372.01
322.98
137.32
318.40
624.12
281.64
313.95
343.56
342.32
489.02
549.62
269.17
385.74
836.52
1269.38
1531.25
1332.86
922.58
447.50
1285.44
1543.27
1289.00
894.02
215.64
245.40
286.26
396.58
363.82
1266.73
664.33
357.43
241.55
272.17
265.24
259.97
250.69
299.54
259.11
300.22
315.04
343.25
392.18
194.30
268.96
569.85
455.52
350.59
435.57
286.82
286.22
291.41
479.49
179.13
117.72
462.48
445.36
551.49
338.65
419.20
385.34
498.02
419.48
485.23
290.78
423.18
261.39
1873.37
498.82
411.98
279.99
352.47
372.73
243.55
319.10
307.34
319.52
317.69
479.37
507.91
601.47
269.90
300.79
340.13
208.41
429.11
279.80
440.43
456.17
304.64
350.27
232.29
404.60
561.39
302.30
442.05
791.41
843.72
501.93
307.72
527.56
531.63
256.79
590.88
936.54
1969.01
259.48
202.22
477.74
188.67
564.82
778.66
683.52
898.00
501.00
286.36
697.59
1819.11
419.13
237.17
202.62
385.62
365.67
387.25
367.16
382.25
357.94
468.07
503.47
539.56
694.95
456.11
388.35
228.62
193.95
137.93
221.78
311.14
222.78
388.26
486.68
475.05
416.36
374.88
392.91
345.76
562.60
336.61
350.64
238.51
229.72
70.23
248.37
307.84
235.45
1831.40
195.92
254.72
360.23
396.87
356.51
305.39
234.79
175.27
325.23
349.62
187.48
387.54
736.84
280.05
133.79
289.34
399.12
390.39
307.33
189.19
335.75
268.79
295.64
460.54
546.34
926.20
541.12
413.09
347.57
302.75
289.01
288.02
157.92
255.23
228.13
365.63
348.00
1868.86
270.69
345.70
446.90
507.64
198.45
328.38
269.23
389.25
246.25
387.78
275.63
181.88
609.23
295.24
481.02
412.17
442.13
432.69
287.18
126.40
241.67
197.64
228.38
185.91
254.87
582.67
542.32
331.17
450.79
277.52
319.21
533.39
850.22
646.37
426.34
411.69
276.57
309.12
311.26
195.92
220.16
291.87
534.19
256.04
199.89
418.02
373.85
262.58
464.83
316.85
1795.39
193.39
247.16
413.09
325.75
530.78
555.98
531.24
436.82
406.42
391.60
282.07
342.47
656.00
320.37
341.33
539.65
555.52
877.04
604.59
888.06
817.98
595.15
434.81
412.80
1560.50
424.22
526.01
501.85
296.79
885.18
1104.68
1052.58
540.98
411.75
330.32
503.35
1872.10
167.29
266.91
153.72
346.38
276.08
256.47
162.90
300.06
449.47
324.38
284.30
403.05
495.22
371.54
434.57
306.57
325.44
390.94
368.50
403.70
371.15
329.10
426.62
350.27
304.74
534.64
352.60
316.70
216.85
293.71
306.46
198.94
226.49
477.27
680.64
406.60
602.91
554.39
728.32
761.60
697.64
506.48
366.44
260.73
197.87
391.06
265.89
296.12
295.90
382.66
251.21
137.30
445.48
1123.86
1180.30
872.61
321.48
336.99
481.09
822.06
923.24
743.38
228.74
310.53
271.84
288.71
250.72
549.00
469.78
653.48
956.99
732.68
617.35
80.83
326.04
261.45
414.48
149.40
306.64
452.10
366.41
266.64
509.80
544.32
523.00
439.21
1733.77
420.52
632.14
457.03
333.87
260.34
221.94
375.30
353.86
383.77
456.64
626.24
450.37
752.88
482.75
460.02
283.33
351.59
348.47
173.64
380.08
211.82
260.41
179.91
278.57
447.41
421.61
276.25
219.74
280.41
312.80
145.94
454.77
72.72
211.29
344.20
435.80
445.80
1627.66
412.61
347.07
254.27
271.90
350.51
369.61
316.85
175.04
347.02
328.06
221.49
283.25
622.80
278.27
482.89
575.38
446.39
614.90
441.45
475.75
293.74
180.68
282.51
154.04
255.63
395.30
289.54
197.67
457.15
390.82
385.88
671.55
251.44
291.94
503.15
562.65
407.90
423.30
485.42
438.49
695.95
418.42
277.39
288.95
467.47
470.51
441.46
371.15
336.96
368.61
1052.37
508.68
481.09
440.89
419.80
458.48
580.02
433.20
381.92
409.31
337.52
346.34
307.98
420.28
662.44
1336.77
1432.97
1205.04
561.47
325.57
1028.82
1157.32
1115.40
928.40
218.24
486.20
332.60
323.87
750.14
641.51
817.53
524.34
225.01
185.25
621.85
604.82
387.71
469.44
317.15
322.36
618.60
697.97
1196.13
1505.09
1322.80
564.01
453.49
911.27
1173.09
744.18
163.48
411.70
324.58
656.75
653.60
234.39
357.17
261.80
329.47
352.08
592.81
1323.34
249.46
490.87
159.52
406.71
559.41
827.92
1223.07
1119.19
473.52
735.81
996.86
1573.23
1078.36
702.56
454.09
236.80
252.60
370.73
333.09
343.32
414.66
411.96
298.10
1309.33
265.25
483.98
358.50
451.09
403.58
425.25
469.44
565.31
574.64
403.45
327.67
19.84
638.56
500.52
268.07
591.14
489.38
549.72
326.68
289.79
560.28
415.90
403.23
473.14
386.38
510.69
342.01
235.90
320.87
361.62
299.77
208.48
217.78
231.32
323.84
269.09
373.43
1477.82
273.80
471.13
334.72
660.24
766.10
476.03
366.82
191.39
175.72
172.55
480.39
363.84
1213.25
542.19
389.52
287.28
147.86
291.44
286.96
325.35
154.15
466.83
373.48
430.68
265.04
318.79
293.42
244.54
204.25
426.15
325.06
391.04
422.69
346.81
292.07
291.21
336.38
1595.03
310.84
236.80
454.51
360.78
319.17
437.83
699.63
652.02
863.15
612.80
274.17
2426.79
966.54
943.43
850.83
417.63
294.49
486.43
470.63
409.22
448.02
310.12
492.39
1468.41
525.61
491.74
660.29
273.54
171.23
290.33
202.92
137.29
382.12
812.65
1129.48
1461.89
1520.69
701.37
311.79
971.75
1315.30
1136.07
747.27
181.13
310.44
239.07
334.82
1219.74
201.58
485.67
292.59
523.64
159.83
289.95
351.70
530.62
769.13
370.91
196.63
267.92
410.78
354.20
347.95
253.53
294.15
403.59
233.39
318.47
309.85
624.04
544.64
636.64
587.98
535.48
557.37
377.76
339.52
294.44
406.04
219.34
228.99
333.83
321.91
261.39
307.10
1593.18
577.76
582.45
579.63
439.83
694.77
747.61
692.52
586.27
312.41
374.79
567.97
317.42
85.58
175.30
406.91
271.24
553.59
295.96
420.57
277.30
348.34
220.70
410.85
374.85
1527.72
334.87
296.07
417.19
232.08
446.95
363.27
394.33
387.98
518.92
340.93
280.81
308.42
508.10
398.10
301.89
189.53
434.27
446.92
364.78
311.17
382.66
473.15
393.36
216.88
170.13
449.85
309.45
334.73
51.18
285.31
277.25
774.80
736.00
744.09
524.27
197.02
281.98
1126.53
363.89
483.51
312.14
713.21
820.17
365.59
173.53
192.95
444.32
751.61
463.75
305.58
472.80
418.73
476.21
317.91
375.37
338.83
334.07
360.42
97.65
229.24
331.00
326.81
1318.56
238.50
408.92
503.18
659.33
601.01
1006.50
2042.67
2150.44
1494.32
429.57
676.62
2189.25
2214.50
1736.27
1214.45
424.72
273.60
349.64
394.05
335.53
157.81
393.49
397.86
581.14
443.24
396.40
479.41
573.11
461.33
557.44
458.30
490.66
289.77
292.52
225.78
265.37
384.01
278.24
338.32
279.24
274.37
604.55
517.52
496.91
245.69
131.04
316.65
154.43
256.10
410.01
314.94
399.39
279.21
509.22
490.21
447.93
485.24
371.61
369.31
285.39
153.22
1339.35
560.43
692.83
673.98
292.19
286.61
162.17
256.78
352.73
454.12
217.31
305.79
276.17
215.08
182.55
355.69
325.98
347.61
360.50
462.27
781.23
902.15
1159.61
1042.62
821.97
430.70
552.42
1133.74
829.64
549.71
255.63
407.66
674.25
891.99
1053.33
483.85
2069.44
1327.72
1505.08
728.05
110.64
402.12
279.10
205.30
285.51
394.67
371.38
418.66
1167.29
306.99
275.36
316.84
242.27
179.79
439.90
459.42
349.71
376.19
152.70
415.05
484.31
396.02
453.02
420.37
414.28
316.59
390.96
296.51
523.20
383.36
305.32
568.85
301.46
532.30
561.53
574.24
550.32
346.96
377.41
306.23
328.10
330.18
357.41
623.54
719.60
477.82
1301.47
140.50
323.53
157.92
316.13
294.09
283.35
118.85
349.80
161.00
370.16
276.59
423.10
654.16
370.10
371.16
201.50
297.33
287.53
194.32
327.04
217.95
296.56
382.11
383.75
351.11
339.88
537.46
458.89
348.54
269.39
212.95
291.64
519.95
604.67
402.49
286.28
299.32
1412.15
188.20
282.56
187.94
241.79
379.02
425.39
286.50
447.54
244.76
341.51
320.73
72.68
594.20
313.69
508.20
514.66
474.94
381.22
285.12
300.37
230.20
259.82
343.75
339.36
409.95
704.95
599.44
523.29
258.17
346.24
430.78
194.12
343.36
420.86
395.49
275.56
267.23
198.75
392.49
316.73
235.14
402.37
351.01
486.73
405.16
161.44
243.50
316.29
322.98
634.17
1484.61
633.29
655.66
671.14
448.61
379.12
304.02
231.90
672.56
1103.69
1132.78
682.28
212.93
483.96
594.12
985.03
1144.56
453.40
260.75
477.34
462.20
357.03
326.27
172.03
263.83
654.61
261.57
436.38
565.32
470.98
431.09
455.72
279.49
469.89
489.08
349.71
336.67
438.21
522.02
345.99
202.73
294.56
114.79
439.56
761.98
377.59
215.99
499.47
653.85
610.15
557.54
808.86
439.29
328.47
199.83
372.67
491.70
203.71
107.99
248.51
243.75
361.72
263.40
1159.27
538.31
643.10
472.52
404.59
451.66
344.66
352.65
422.11
485.47
408.70
478.02
283.78
592.08
525.31
320.00
300.32
371.94
422.06
443.53
344.09
271.61
326.79
543.69
531.29
285.40
304.53
325.47
186.05
295.52
388.83
407.05
267.64
117.95
124.34
138.75
315.59
395.53
1331.15
746.30
649.36
532.40
361.75
336.63
275.74
293.56
521.97
180.36
241.81
330.43
492.93
857.69
592.19
554.73
633.91
393.90
96.95
152.50
203.22
468.42
622.43
408.63
338.22
333.35
436.24
416.58
314.06
432.25
240.80
279.42
336.83
602.99
359.60
349.79
410.83
501.74
1511.01
1030.54
1436.77
1628.97
1165.34
497.87
315.95
916.00
1408.70
1052.90
695.94
337.34
356.26
115.15
254.41
441.34
476.10
425.83
475.84
242.01
444.34
517.08
396.22
399.93
1122.34
475.67
434.29
719.55
619.85
357.77
265.76
271.73
359.21
284.90
254.69
791.58
847.45
1112.73
195.89
290.56
322.40
397.17
468.61
541.60
351.70
553.04
390.50
226.93
168.97
1061.69
41.74
257.76
205.60
297.71
513.44
648.87
673.92
262.91
202.98
412.96
429.44
534.99
719.64
540.09
365.33
227.68
180.82
213.87
176.16
70.34
113.79
418.35
390.44
434.05
433.76
600.65
565.71
454.37
289.80
385.02
297.67
535.08
577.56
571.28
527.21
394.53
348.25
1580.41
319.98
378.38
375.62
385.21
245.33
483.75
321.66
471.17
119.70
409.55
195.87
391.71
689.14
465.95
264.26
328.23
371.05
486.47
410.07
380.51
388.28
357.17
203.98
471.42
459.12
618.68
147.73
227.08
128.31
184.98
340.08
372.29
212.86
345.57
364.43
354.98
368.73
303.11
460.34
429.94
530.01
421.64
167.41
250.22
189.91
535.21
612.58
220.09
268.36
362.70
912.56
595.79
487.59
484.86
79.85
449.84
537.87
412.80
201.21
428.86
233.24
464.24
208.69
498.35
296.69
684.39
802.30
789.35
657.05
483.02
161.56
221.27
139.08
333.13
469.16
1273.93
103.33
427.50
678.56
665.78
289.64
301.01
479.97
491.82
523.55
161.28
48.25
198.66
452.17
341.57
389.06
275.20
440.72
308.47
518.27
521.74
505.39
600.79
417.23
334.95
1164.03
354.22
349.79
469.99
482.45
405.84
439.85
510.68
456.04
363.50
401.06
350.44
190.84
472.65
252.56
400.50
226.95
285.18
186.66
187.29
235.84
492.39
503.95
426.63
471.34
306.97
397.18
157.56
188.87
290.07
357.34
291.00
328.80
182.64
248.75
200.66
170.58
335.91
288.43
438.75
387.30
655.66
627.78
504.72
181.19
516.71
504.29
322.23
605.65
768.35
346.60
1374.06
286.70
129.24
474.59
419.32
429.45
285.36
257.68
170.81
401.39
493.50
551.98
630.90
653.46
611.49
347.72
301.58
429.41
223.27
414.98
585.59
560.26
417.14
318.22
560.39
868.37
958.55
401.69
230.70
209.98
215.08
372.66
298.57
322.67
524.99
533.16
599.57
393.73
710.92
354.15
402.02
296.08
222.12
190.86
370.09
376.81
466.86
204.54
174.44
388.86
421.05
499.03
440.62
198.86
273.05
410.41
213.57
379.23
333.94
357.55
365.64
405.43
239.35
954.93
308.69
297.08
327.89
70.39
247.74
381.90
488.34
447.45
512.68
504.52
538.09
479.90
888.27
290.70
326.97
368.68
229.88
403.57
476.56
405.74
161.59
245.25
272.00
476.57
211.32
279.04
485.14
479.77
623.77
472.70
587.50
244.65
350.93
672.66
1037.01
870.89
530.13
829.76
580.79
830.70
442.17
210.46
207.19
292.40
277.17
246.40
216.16
304.09
421.40
1361.39
401.71
423.66
455.27
351.42
489.69
429.07
451.46
319.54
275.99
293.77
299.16
301.75
575.63
313.69
369.57
376.45
272.85
463.42
642.93
438.87
717.93
482.91
231.08
392.79
344.15
287.07
201.38
212.76
49.50
185.15
209.60
340.04
425.70
482.41
461.25
450.32
446.55
981.93
330.75
289.74
363.73
86.26
381.95
439.35
360.85
328.23
530.75
280.72
522.29
657.82
940.10
646.92
487.60
250.37
180.55
304.52
359.46
191.49
433.54
353.95
476.24
431.02
990.06
485.77
334.49
280.96
414.94
337.24
344.10
338.95
497.35
455.76
399.70
333.00
179.03
587.80
281.69
210.45
239.20
148.32
117.15
361.06
320.12
570.30
665.81
770.96
643.97
344.98
217.74
106.29
287.78
222.79
518.09
589.92
678.69
521.95
255.38
635.93
480.94
159.02
1270.43
346.39
157.77
99.82
368.35
317.76
169.53
388.64
464.11
287.13
412.25
251.96
316.64
679.82
537.51
567.88
469.22
540.20
436.40
443.02
216.19
265.24
302.22
370.95
334.28
499.20
322.88
365.17
328.58
279.28
118.04
306.65
283.53
296.11
169.00
157.85
539.98
250.77
905.64
240.06
417.36
554.85
320.76
127.68
322.84
231.29
165.64
306.24
549.06
474.49
656.92
999.54
543.95
372.27
297.43
183.07
280.34
378.76
285.14
247.35
226.70
367.30
442.56
330.17
504.85
347.07
416.59
276.46
676.78
332.41
261.50
417.13
445.30
444.21
307.54
381.59
2189.04
515.16
625.29
644.44
760.71
768.58
525.46
372.49
380.32
295.63
97.02
311.41
245.42
566.65
402.09
285.43
497.59
524.24
587.86
532.08
505.33
213.63
184.32
243.04
430.56
519.18
407.50
277.53
289.96
220.01
226.38
165.43
313.55
280.25
183.08
274.66
287.04
164.25
189.14
457.21
475.79
600.00
671.50
363.65
130.24
203.34
299.91
322.58
257.10
369.67
232.24
901.03
358.70
492.20
413.25
462.98
425.65
380.67
348.73
360.82
140.76
200.30
377.28
427.20
691.13
418.28
482.99
359.88
510.51
902.50
889.68
971.01
693.20
296.31
338.82
512.27
993.50
155.87
105.01
199.47
367.50
421.93
578.60
877.33
845.72
659.43
419.69
414.59
878.33
393.04
367.50
725.71
658.08
308.27
216.73
298.06
514.00
459.68
381.62
382.75
1071.44
183.89
292.63
438.13
408.51
239.75
217.13
341.76
386.32
564.01
505.56
314.96
527.83
485.72
309.58
163.46
357.11
191.85
235.69
283.21
99.97
136.26
162.24
294.45
356.68
417.06
548.66
556.52
658.79
570.69
364.68
490.33
64.17
384.27
420.89
287.85
399.24
431.67
2262.70
362.35
464.29
347.20
399.19
311.17
248.96
309.19
165.61
245.42
236.86
260.66
416.66
809.32
151.03
240.09
381.42
314.81
314.30
327.82
308.19
422.46
383.38
373.31
190.75
372.08
228.16
91.92
236.07
175.64
272.14
366.88
351.27
189.09
275.61
417.63
420.66
388.82
2300.60
321.12
399.83
437.03
554.74
520.02
535.80
585.73
477.30
340.68
357.34
745.95
661.40
836.62
263.55
205.31
445.77
400.82
560.58
562.12
697.87
737.64
425.62
401.67
497.63
610.66
264.59
452.91
266.24
584.93
738.17
782.18
606.20
410.45
273.35
323.42
307.56
270.69
1539.67
393.06
252.07
331.81
193.04
152.12
250.47
237.36
315.43
488.85
436.57
730.34
893.58
1221.64
762.88
138.70
437.88
424.33
487.54
191.80
293.11
506.02
562.01
462.06
565.47
742.40
265.35
395.92
498.05
230.72
370.03
779.37
576.63
212.75
407.01
455.84
332.55
947.26
418.36
416.11
234.13
187.47
363.19
439.78
386.60
390.00
235.92
222.90
240.35
294.64
582.41
120.45
228.20
457.58
332.86
352.55
559.69
445.54
446.99
245.43
208.41
192.37
469.40
380.00
503.60
449.68
741.42
689.73
584.36
474.76
155.07
271.77
253.45
204.39
301.59
281.64
390.25
398.17
517.08
427.57
307.66
287.82
439.78
462.25
588.00
265.72
422.46
413.82
2390.58
546.67
410.25
526.23
390.36
326.68
246.28
237.49
444.36
403.51
686.61
666.92
552.46
860.30
231.54
166.55
286.00
424.06
296.19
482.23
455.29
491.79
467.28
340.16
376.30
195.70
325.52
293.65
430.81
346.42
234.23
373.44
599.47
677.76
671.69
568.24
740.04
618.70
2153.11
390.20
190.84
480.35
599.69
469.42
199.21
228.38
280.34
560.20
475.32
569.23
372.31
686.07
406.45
199.67
244.55
313.00
204.20
261.39
342.35
257.52
572.22
488.96
501.22
237.24
136.09
398.59
315.42
145.22
282.18
315.63
173.55
313.37
468.14
272.54
505.15
391.34
2205.27
403.88
436.91
273.50
355.82
352.47
466.72
355.92
294.72
293.09
162.43
317.08
320.57
808.85
275.47
320.46
179.97
273.75
387.08
273.72
318.37
460.85
395.72
378.04
326.25
175.43
432.77
282.43
367.64
535.47
265.69
202.91
133.41
298.03
45.67
214.21
275.21
150.92
2144.16
632.27
453.97
422.47
465.11
448.61
372.94
368.05
466.69
462.97
431.56
247.54
235.88
607.75
263.68
192.19
499.85
487.64
599.91
826.48
748.77
683.33
591.47
188.86
175.99
937.65
306.07
136.39
230.19
271.22
289.10
161.29
152.98
161.93
414.01
340.68
404.30
298.22
506.59
272.70
245.09
292.43
333.51
355.01
269.64
399.52
362.66
513.78
908.02
1524.69
1823.22
2092.16
1156.97
547.44
1931.73
2349.99
2112.71
1263.39
288.09
318.86
517.80
452.32
815.54
670.46
508.30
592.78
304.13
240.29
235.06
247.52
212.45
188.53
315.56
395.25
2107.28
396.65
636.44
698.07
763.24
870.39
260.18
194.84
603.89
387.74
381.77
239.06
385.79
532.18
461.42
473.24
482.44
219.46
436.50
246.69
330.20
393.58
319.32
359.29
319.52
916.66
395.82
405.37
511.12
648.13
673.84
658.07
681.06
747.93
614.79
470.55
372.27
232.65
475.18
248.18
383.39
531.10
492.52
257.15
304.47
268.61
292.81
298.99
387.86
331.31
177.28
288.16
311.23
171.45
343.37
344.19
687.22
455.00
706.00
533.33
582.85
203.75
475.07
885.60
389.91
50.40
191.19
228.80
382.76
442.16
463.29
437.65
450.49
298.85
286.76
155.96
479.57
282.21
358.06
593.00
358.79
267.15
377.43
226.02
353.73
262.63
519.80
401.25
374.30
622.76
605.10
303.07
485.17
924.57
986.33
855.10
535.30
173.81
645.05
1050.77
415.27
178.98
251.09
294.01
213.99
546.56
680.79
180.25
315.58
402.00
476.29
884.65
614.50
1645.44
95.13
223.07
457.12
334.18
481.32
557.38
614.07
529.32
284.87
117.48
269.87
327.20
617.82
683.91
415.73
175.96
348.14
142.53
242.35
299.52
759.74
782.86
457.51
99.05
400.58
304.65
312.21
354.56
381.77
314.53
409.68
406.60
579.60
743.83
401.37
210.83
295.71
334.90
467.27
284.67
225.68
167.67
229.54
460.86
257.09
356.02
314.00
321.39
324.92
2051.64
491.72
437.19
331.41
564.81
415.23
243.69
354.23
511.07
488.35
586.10
290.61
278.90
602.63
325.73
404.66
415.63
244.00
468.08
283.67
387.80
193.71
356.83
363.15
548.28
793.67
1045.31
930.07
653.56
590.26
684.33
906.33
702.88
382.76
703.93
1350.95
1129.34
1776.63
286.38
561.25
1124.50
1571.06
1566.25
1055.62
386.10
441.13
1301.27
2277.77
2336.51
1465.27
513.68
528.90
733.76
558.10
438.73
618.19
867.59
732.36
231.07
667.46
2496.75
101.45
141.85
320.32
261.71
168.57
262.49
368.50
571.21
508.88
709.76
369.48
630.73
742.51
245.32
298.18
414.24
365.67
440.36
337.21
261.50
377.66
345.18
330.76
305.61
266.45
457.02
495.42
292.66
511.12
548.42
891.71
1025.55
987.76
691.89
439.91
414.95
642.10
626.34
194.74
407.37
417.70
526.65
482.95
141.74
272.45
357.69
336.18
249.66
261.65
326.70
389.82
265.67
397.42
477.88
318.78
591.43
873.91
580.88
255.07
206.66
209.73
204.24
1187.49
184.11
143.55
302.20
271.46
594.04
342.65
192.64
354.78
593.01
837.21
1344.71
1154.30
387.37
574.32
177.54
412.69
449.27
308.23
275.79
234.42
360.38
830.00
1640.52
1110.13
349.46
1115.18
2444.92
2034.81
426.42
1013.62
1436.33
1913.63
2015.06
1392.70
655.66
557.72
855.95
1379.62
1097.31
508.58
238.56
174.69
126.99
493.47
501.05
187.12
315.50
810.50
771.84
758.52
1007.24
1173.80
799.70
924.57
700.51
343.76
348.06
737.82
1171.30
571.92
337.58
204.08
222.56
243.56
393.28
777.41
780.80
550.74
617.07
418.49
570.59
169.66
315.51
373.33
391.14
419.97
723.18
1195.31
1232.66
1495.05
1814.62
2579.87
2112.40
973.37
354.48
2184.04
2354.86
1214.30
381.98
712.44
590.23
262.18
393.18
608.61
264.51
257.92
352.59
680.02
795.30
259.46
179.29
934.46
1117.00
1275.53
737.94
317.93
619.96
626.81
171.25
333.30
397.42
513.90
366.85
233.06
334.80
413.09
69.22
64.27
593.39
432.50
370.55
471.45
364.36
385.09
545.02
946.26
861.15
656.88
419.29
419.62
2052.20
714.10
899.69
656.90
364.67
911.39
991.64
697.92
193.31
677.58
1292.23
1353.24
873.45
501.49
256.20
731.60
977.19
673.32
355.61
343.78
378.51
145.91
383.94
249.82
319.05
305.61
340.67
425.64
169.77
662.01
395.68
300.07
463.21
551.74
262.35
279.83
168.13
341.36
193.12
309.70
375.15
319.18
507.43
669.76
846.50
669.25
490.17
254.99
289.35
1168.09
442.69
483.43
498.71
525.71
692.47
400.18
426.54
376.09
358.90
655.33
343.86
188.59
551.06
970.16
2063.84
2602.69
1168.38
361.99
578.49
493.43
433.03
753.40
668.67
278.80
342.22
977.09
1254.98
1307.91
533.31
543.33
742.58
314.04
327.34
116.51
371.11
365.87
443.56
563.37
403.33
622.30
774.39
746.31
266.21
396.13
434.52
478.07
509.15
278.49
1194.01
175.29
351.01
500.55
584.15
446.18
620.59
923.19
364.07
741.49
414.28
171.04
346.47
347.99
480.34
403.01
750.85
800.28
938.74
1237.64
636.22
197.81
377.59
155.34
179.42
723.42
727.21
579.12
609.37
390.27
233.12
332.24
697.88
1655.24
1400.26
874.05
316.68
826.41
1033.07
1053.16
1095.14
1034.17
644.35
378.90
236.42
218.59
498.45
1053.14
3007.47
945.74
463.22
491.41
657.36
155.40
367.81
364.26
380.42
231.04
399.92
470.93
674.48
1286.15
1431.89
991.96
262.83
483.63
174.20
368.90
251.69
462.05
257.22
610.93
369.73
288.53
241.78
368.45
517.13
420.94
369.47
224.41
959.14
722.20
302.06
584.84
566.33
1383.13
634.80
627.68
601.39
499.29
339.12
136.47
232.20
582.75
680.46
252.80
1049.65
694.42
313.90
265.10
446.12
469.53
659.83
893.27
499.10
326.31
276.14
241.15
282.72
442.61
414.70
86.76
409.27
737.73
1252.99
1005.10
570.87
316.77
238.55
531.75
511.20
491.88
583.36
243.27
363.45
287.26
654.67
921.22
946.59
436.50
368.11
231.95
251.89
268.53
1961.28
380.82
328.02
235.06
276.06
233.62
531.61
624.15
263.61
417.51
151.62
418.55
563.35
1072.28
768.18
564.06
445.49
503.11
415.40
571.39
914.64
1578.72
2019.08
2850.38
2892.66
1673.14
349.82
1040.26
2794.21
2935.17
2794.02
2510.61
1295.76
226.36
137.69
409.83
719.43
590.77
321.64
401.12
443.85
401.18
443.37
839.47
883.65
495.32
371.78
447.72
2051.62
327.12
798.95
1056.23
472.95
379.43
853.71
434.03
247.95
537.73
1048.28
1370.52
1398.30
676.97
310.50
599.49
301.15
510.27
1213.62
776.13
236.76
439.99
620.74
367.17
790.80
726.49
497.44
249.13
223.22
193.12
519.09
621.86
434.88
316.22
482.76
309.57
1134.46
206.89
300.14
194.42
243.06
220.07
555.12
921.57
696.30
369.28
320.79
550.36
1917.90
1049.30
680.80
244.15
989.82
704.93
268.80
652.02
846.77
652.58
503.20
632.54
881.95
818.42
592.59
522.00
438.47
298.40
513.19
484.34
204.90
341.02
253.03
298.51
2511.64
444.82
437.98
352.10
281.18
312.46
428.74
431.30
196.07
451.36
482.16
560.78
566.65
921.03
315.79
318.32
304.78
553.91
634.57
416.63
235.61
432.56
353.14
287.88
297.60
546.60
461.07
208.92
355.87
453.02
246.52
241.56
359.83
398.39
251.02
355.26
613.42
428.57
1822.51
570.74
421.62
742.50
1214.19
1569.05
1040.14
920.91
911.01
864.99
335.72
832.21
1824.19
2137.60
1641.49
854.64
215.74
448.22
770.88
413.57
351.80
768.70
569.16
193.18
682.23
385.97
464.25
380.70
535.70
440.03
342.32
240.80
248.98
293.60
292.16
780.88
2047.49
1019.87
362.16
348.65
272.57
1045.71
1166.55
1145.98
1262.70
854.29
418.27
1081.75
1690.24
1521.63
1254.28
997.35
591.65
147.90
533.24
809.75
990.44
769.60
344.49
513.14
366.06
597.15
396.55
266.36
369.72
569.73
879.77
1069.92
1488.51
1319.66
1177.61
1116.68
670.07
744.45
282.24
589.07
387.53
402.33
1046.59
1024.42
924.92
811.12
536.81
221.88
316.21
437.39
953.88
1214.66
1242.45
654.64
417.12
436.91
348.71
362.35
2634.38
284.28
291.79
340.66
128.40
157.95
421.43
785.95
711.60
323.21
499.08
806.83
460.97
267.55
319.43
484.35
520.46
592.39
667.59
261.77
273.85
328.36
525.27
600.49
801.42
1321.76
679.40
1155.54
1003.91
1083.12
1038.26
941.97
644.45
492.93
674.98
451.23
659.48
877.34
601.04
496.63
1185.13
1109.49
369.16
360.46
949.38
1155.96
972.55
707.33
2301.52
350.96
123.14
419.33
245.61
303.33
387.91
894.18
928.80
987.11
686.85
260.41
1512.75
423.33
368.88
165.14
282.36
437.06
988.21
946.92
567.90
281.14
330.06
454.63
1831.49
1099.89
1177.84
838.55
493.04
417.10
227.49
694.23
753.19
591.39
973.87
490.99
675.71
418.25
337.83
302.55
438.30
309.39
468.91
338.22
322.36
223.05
327.08
389.68
490.13
645.25
328.96
352.65
558.18
622.09
105.31
139.00
122.14
226.13
272.09
424.40
364.98
1659.88
177.04
312.32
225.50
328.55
314.02
278.19
574.51
599.43
463.12
323.97
120.19
354.40
547.55
307.37
973.90
631.31
281.40
378.42
498.52
975.83
1319.29
1222.88
705.45
486.89
703.20
285.31
607.27
1387.90
1282.55
952.65
245.11
939.00
1647.24
1710.79
1692.84
1244.87
531.29
365.83
386.32
631.27
772.84
1334.10
1250.42
1495.55
988.74
307.77
519.19
735.39
183.71
468.78
1130.07
1378.08
1013.65
444.89
981.76
1802.51
1341.20
404.47
2029.42
931.91
955.15
1273.96
1787.33
1341.20
581.24
274.64
414.52
740.32
380.29
1375.28
1718.26
478.08
1093.94
1512.96
1374.65
724.15
454.75
782.46
487.28
857.56
853.35
933.48
423.49
467.72
325.00
281.33
155.85
190.83
252.70
441.72
264.05
364.16
643.26
1789.37
765.01
744.71
308.36
285.89
286.81
595.58
586.13
312.88
843.94
683.14
240.50
774.71
1155.53
1458.86
1526.58
1096.71
815.52
801.34
845.30
1286.15
1051.08
870.12
480.14
788.68
1635.04
1714.62
1130.52
389.64
179.64
327.13
326.46
484.37
504.42
378.63
1502.70
300.18
461.60
544.51
516.16
1127.07
1768.94
1247.81
269.95
694.73
1229.22
1495.76
1376.67
218.42
619.87
1599.46
1740.72
652.07
278.60
882.07
1194.75
774.17
419.17
1044.07
482.45
552.84
458.60
580.91
218.24
360.81
354.40
590.11
588.57
558.98
418.84
461.61
557.93
616.60
767.35
674.47
236.65
260.04
298.63
927.16
1091.93
1312.10
923.19
298.51
888.73
973.30
241.33
463.93
917.16
991.43
1233.07
1215.45
754.76
414.98
797.84
1699.22
1348.08
371.16
879.68
1106.64
1400.30
529.79
446.79
845.81
372.93
368.27
1838.07
1150.94
1060.53
308.49
275.18
428.65
490.84
494.14
358.67
1159.24
1586.79
626.34
998.21
328.65
175.54
371.02
387.29
490.23
332.09
771.78
888.23
907.96
948.52
659.89
1024.33
389.57
275.43
289.52
327.96
279.23
183.90
493.58
307.94
439.66
398.02
374.26
1855.17
648.85
186.23
374.90
610.77
1044.55
831.33
377.69
297.83
910.89
650.14
345.35
1275.81
818.21
462.21
742.23
635.45
584.02
1534.85
1730.97
759.96
403.82
286.85
723.25
1051.48
262.39
210.64
241.28
362.07
230.15
407.27
221.95
535.90
896.87
351.93
498.74
1758.41
282.72
469.86
1201.00
970.18
251.22
734.04
632.11
766.76
730.78
191.83
384.30
280.26
884.63
1790.36
2015.26
1070.20
739.18
1274.01
631.74
272.08
471.47
1086.26
1985.49
1109.30
292.88
232.24
148.24
394.42
812.78
922.74
805.24
276.90
379.56
574.36
318.74
749.66
329.00
408.90
656.38
664.60
618.91
273.48
414.12
712.43
258.17
721.70
593.38
1385.42
327.07
633.99
600.63
484.04
381.47
132.22
313.26
632.47
1220.66
283.90
537.85
1684.33
836.00
410.67
337.85
557.18
392.62
496.88
479.05
450.64
351.34
387.96
705.75
1129.83
1174.91
667.23
296.27
729.17
388.15
416.32
517.46
897.28
1483.90
453.49
309.86
1708.46
496.14
497.52
217.40
216.22
582.49
478.52
325.26
232.64
512.03
374.12
509.99
1238.04
871.02
436.74
301.67
163.72
373.43
407.08
120.47
423.80
436.23
444.28
808.56
460.79
1341.34
242.75
369.17
614.39
349.39
291.24
263.54
190.79
332.59
431.74
295.05
746.90
1269.53
1050.20
397.67
904.65
1280.23
256.60
453.94
428.34
400.96
366.24
476.96
1008.46
1361.28
1501.99
1008.20
592.54
444.61
1561.43
1661.25
322.19
530.85
774.23
797.11
411.76
1036.91
536.16
288.25
553.16
439.50
1145.60
2235.98
2093.66
1643.62
389.19
1188.10
1772.17
2140.96
1536.46
265.99
532.07
992.36
506.00
381.93
150.28
491.33
416.48
295.85
384.07
489.74
454.95
345.03
945.04
1122.50
490.14
305.00
409.01
463.39
609.42
585.35
238.92
690.61
859.21
586.00
284.07
481.65
624.23
1055.82
1830.31
2073.18
1271.36
463.53
486.91
1826.86
2907.38
2119.87
1019.35
423.76
1287.07
1364.86
356.87
762.68
757.66
380.45
1046.80
437.77
386.47
377.01
274.91
290.74
381.19
350.06
215.19
379.67
378.69
372.68
1710.21
613.05
264.37
482.81
230.90
440.68
595.64
588.20
228.34
333.79
413.52
260.71
309.78
716.84
994.02
1025.18
879.48
877.43
562.72
242.38
243.23
199.88
401.91
262.53
309.17
413.93
277.10
598.63
636.67
215.59
335.26
181.54
664.74
143.96
207.43
461.53
484.96
1022.00
352.62
562.67
302.05
389.90
458.36
765.58
508.79
527.86
385.63
570.75
999.26
698.81
626.56
378.77
846.95
1057.03
425.95
334.60
324.04
484.86
356.63
345.18
248.26
581.87
904.61
365.80
344.27
239.90
979.86
1312.31
841.04
328.09
291.93
698.55
852.20
696.48
299.24
513.76
1297.37
1516.13
739.21
499.13
853.26
666.44
389.29
437.52
319.56
530.55
932.06
1669.15
1363.02
449.04
401.09
711.19
717.39
451.88
415.27
415.30
950.16
947.21
1101.51
789.40
606.79
632.75
830.97
1296.34
1576.20
1862.25
1494.74
286.98
314.67
710.84
332.79
371.33
369.37
558.54
360.43
455.25
491.64
879.44
620.18
666.49
382.39
1528.96
720.52
173.13
478.73
466.82
478.36
918.01
1097.30
581.78
796.25
765.99
1101.81
1319.89
493.79
452.01
813.65
974.39
855.68
683.19
351.20
439.66
423.10
359.47
257.10
1068.36
642.94
344.89
661.53
719.93
719.15
874.87
608.67
400.07
979.73
901.99
995.21
982.46
346.83
276.47
707.35
357.74
973.40
1111.18
369.93
346.76
901.79
823.46
500.22
877.78
1097.84
854.12
394.64
542.35
747.75
461.13
124.59
294.59
543.97
555.90
1482.41
2350.61
1521.05
633.67
311.82
200.26
371.40
455.79
264.10
826.62
1543.48
1063.88
577.89
286.11
229.28
204.96
242.20
1030.52
1978.79
2316.83
1789.24
517.79
312.44
389.91
1438.51
433.83
1066.58
1730.03
2017.06
1718.96
533.88
368.92
938.89
1967.41
2666.56
1927.18
1373.73
834.45
154.40
230.67
355.92
211.79
298.24
295.19
351.69
283.75
410.71
208.68
629.51
617.61
1017.94
902.68
629.11
632.16
1024.27
1297.12
636.62
348.70
361.34
365.49
417.99
291.09
145.06
354.68
341.56
320.81
130.55
132.47
288.50
236.96
477.32
316.22
1572.92
422.02
544.21
402.47
424.53
343.13
427.69
229.74
509.41
542.96
399.50
336.17
261.01
661.38
204.09
295.66
320.58
216.64
279.57
267.27
642.39
866.12
812.57
620.97
390.27
159.27
532.40
556.19
694.66
194.75
382.69
564.40
791.46
596.34
624.12
1681.07
1058.88
231.65
1028.70
1002.73
1020.57
357.49
227.60
491.39
1463.51
1198.54
273.73
455.27
305.63
530.55
1143.38
1431.78
1490.59
953.06
420.65
1536.51
2182.71
2031.70
1565.33
948.31
232.08
1262.75
1372.88
990.94
257.32
601.08
423.41
690.27
812.55
919.49
647.02
700.63
1589.40
402.69
173.39
251.56
503.28
280.13
240.24
283.95
248.63
503.17
191.28
793.16
550.53
673.38
171.57
345.14
445.86
699.53
937.23
978.62
634.66
355.92
544.28
605.48
424.14
1154.38
487.63
326.51
466.06
431.78
806.59
983.22
227.42
487.99
617.94
704.84
1359.57
2031.84
1883.26
1076.85
312.62
894.11
1774.34
2407.34
2910.76
2730.37
1138.81
398.35
1756.71
529.54
563.40
398.53
378.18
1013.38
1892.53
1723.67
851.33
449.18
260.51
416.25
852.82
855.57
1315.91
921.28
556.46
519.05
340.73
813.75
362.12
646.87
1100.27
956.07
667.21
383.29
626.56
744.68
401.53
472.55
245.30
524.49
780.59
726.09
576.28
541.62
411.84
321.18
715.95
480.26
146.35
618.57
770.19
582.94
225.82
347.70
458.05
1288.96
1432.69
323.50
686.39
768.13
800.96
304.45
855.75
1472.57
690.94
193.28
299.37
638.58
905.60
504.87
1168.82
1388.88
1364.00
479.72
188.94
186.24
301.91
89.82
460.52
309.98
527.74
382.24
305.79
344.53
237.19
251.16
317.63
184.75
332.85
516.84
426.44
553.65
1650.31
204.13
317.35
313.90
231.50
182.23
179.79
432.85
516.33
681.08
1010.66
902.56
631.93
673.28
414.04
283.21
99.16
92.45
541.63
707.09
800.48
576.87
313.45
364.11
518.62
578.39
342.41
475.02
264.66
353.58
573.53
407.42
691.87
769.25
1021.71
967.82
1387.33
2581.41
1179.50
459.72
401.43
686.74
849.92
1171.68
1108.77
913.22
545.00
281.25
1642.29
198.80
769.78
1070.24
1143.98
1190.92
1002.31
344.01
1156.34
1293.70
989.31
1040.85
629.14
327.14
651.14
612.57
371.44
347.05
994.97
1728.62
2145.84
1877.55
1077.65
2060.38
308.59
1013.00
1415.87
1024.42
324.63
1428.45
1419.45
855.12
440.69
523.23
1688.64
1175.07
805.18
210.73
218.68
173.11
268.43
373.02
855.42
1439.02
1221.29
891.11
946.64
398.72
442.16
606.71
434.20
394.27
987.87
1475.51
1308.65
611.70
305.71
609.80
1441.72
1031.08
696.12
691.49
529.26
560.62
1035.25
1026.88
928.04
941.76
621.52
2217.55
299.48
260.83
208.27
540.35
904.50
1081.20
1055.47
1354.97
1306.79
732.20
220.43
467.76
404.20
828.58
1108.91
391.02
999.60
1340.88
1406.20
1241.02
1072.26
726.95
813.73
473.50
293.35
168.52
361.12
444.41
457.56
384.64
409.76
348.60
492.81
254.38
1198.98
294.72
348.14
318.31
515.21
397.18
81.35
209.89
227.55
540.10
533.31
711.59
584.42
743.44
159.48
659.29
730.85
220.38
691.12
732.69
570.36
792.16
527.32
240.10
120.30
585.76
403.55
498.36
737.10
569.24
540.70
586.70
797.59
636.47
206.10
656.98
386.82
423.79
655.27
295.61
430.49
379.26
600.08
506.15
618.51
272.31
263.18
563.89
873.05
892.16
1371.06
112.35
409.63
301.33
300.30
654.25
746.44
544.86
276.66
521.42
460.28
867.89
1779.46
762.51
695.29
1364.66
1999.67
2283.63
1952.12
994.01
207.38
1122.48
1810.67
1603.38
757.57
737.05
604.23
427.00
373.97
197.97
478.16
712.70
343.76
790.79
1841.65
1894.27
1104.31
399.34
719.44
1146.96
1357.41
754.62
587.34
548.99
261.27
243.31
574.99
1099.32
281.46
771.07
962.45
1183.59
807.36
621.96
482.57
258.53
175.17
124.00
537.98
810.97
898.05
1136.91
1191.84
852.68
481.18
994.74
627.54
586.25
1593.82
1756.72
1321.46
263.74
817.40
975.52
620.63
426.68
568.55
289.40
257.65
605.25
568.16
346.60
431.29
380.03
128.93
395.18
767.94
893.09
1081.17
721.43
291.55
302.46
584.16
825.40
927.61
455.53
383.33
1041.21
1811.42
1163.88
310.27
292.21
242.96
286.56
298.58
407.50
280.50
204.49
317.87
459.25
477.72
262.87
110.41
385.24
499.45
518.04
366.27
341.87
360.09
417.67
349.44
453.51
695.78
736.41
638.76
420.77
220.49
400.39
541.13
1241.35
1265.13
1400.85
895.69
361.71
446.28
477.33
246.27
238.51
337.47
380.05
199.92
331.63
842.06
1911.98
1114.35
900.22
611.42
222.98
223.80
452.94
386.12
208.52
265.76
233.69
239.30
1177.01
190.94
471.48
451.09
407.74
276.29
150.81
187.29
340.20
391.20
167.21
178.46
278.66
542.89
337.82
253.43
290.44
320.99
592.83
380.15
211.16
288.75
455.43
374.87
387.33
491.74
315.26
203.09
203.09
163.74
263.62
300.08
383.53
550.35
431.85
431.05
305.90
254.83
1140.99
330.42
351.36
489.57
634.04
503.81
335.87
387.58
293.96
89.49
361.44
566.41
616.82
1095.58
532.05
549.53
331.21
199.82
274.17
239.16
349.52
266.09
149.70
392.39
24.30
294.79
528.74
514.30
414.29
280.56
205.68
220.45
139.98
392.71
87.62
397.06
408.91
432.92
832.08
445.58
263.99
578.16
486.73
392.97
307.40
197.93
345.88
427.16
747.16
988.07
863.44
802.85
698.34
311.57
399.89
153.32
357.21
463.69
455.01
301.78
200.84
151.98
449.18
583.27
325.34
545.96
641.10
654.53
812.96
965.01
1024.29
834.64
248.98
522.88
1021.42
1026.55
385.76
492.36
621.35
524.48
393.33
172.68
351.18
273.99
307.29
385.72
299.04
1508.92
235.54
160.13
359.75
448.80
444.73
484.89
900.22
1119.37
986.20
551.43
317.53
1636.06
603.35
416.99
333.46
444.38
1062.90
629.39
374.83
274.90
430.08
527.21
576.79
615.07
848.00
657.01
356.37
312.07
311.74
285.38
570.75
855.92
706.51
693.23
460.13
340.52
401.41
226.10
327.62
312.40
261.41
349.12
397.11
401.25
338.01
310.01
231.23
407.96
642.30
928.89
1002.04
693.48
516.03
361.61
235.82
115.45
368.85
429.78
384.92
431.78
499.57
844.06
646.55
461.90
195.18
264.43
339.46
584.02
854.55
1173.52
1046.63
420.21
418.75
1081.85
862.24
857.26
472.00
187.47
276.62
553.78
645.25
549.22
145.90
82.03
198.71
1151.25
160.52
238.53
283.89
331.11
588.47
466.84
629.54
738.99
521.60
461.33
318.52
121.04
513.53
331.84
263.02
275.22
19.20
314.87
296.52
169.07
518.68
396.12
466.06
750.77
1392.02
586.33
677.26
498.60
384.01
341.16
267.94
428.96
801.78
685.21
550.11
474.94
494.57
618.35
228.71
260.40
278.13
339.29
279.81
107.79
250.26
152.39
216.78
202.64
260.42
285.31
284.87
389.61
423.19
273.32
506.47
687.53
748.98
446.35
529.64
580.91
455.57
212.46
1168.39
361.76
155.42
395.48
362.44
147.50
364.13
279.74
281.18
535.89
545.57
1061.56
983.82
983.59
880.19
872.69
721.10
450.81
350.59
306.02
569.87
288.65
377.32
244.54
434.05
346.56
125.76
189.42
219.17
201.61
273.38
220.96
276.31
182.60
370.82
252.23
300.17
1552.99
329.86
538.43
637.41
382.87
418.75
702.15
444.11
181.83
468.74
478.56
352.89
273.80
712.70
486.34
595.42
1104.75
915.62
917.23
605.21
415.38
149.18
171.65
424.88
489.16
712.23
311.62
479.54
854.90
1056.69
894.22
544.10
603.89
1482.47
207.65
896.72
1750.89
2157.35
1530.39
465.78
432.21
747.37
465.83
171.01
534.61
688.70
536.12
579.55
523.22
883.72
518.12
302.45
398.13
181.66
211.81
134.85
442.29
333.30
298.93
282.22
327.95
218.05
430.07
338.32
66.54
377.77
268.30
283.87
150.92
158.67
236.56
259.34
257.30
435.18
1104.75
464.87
513.98
136.04
131.02
404.43
123.04
168.63
248.95
447.73
485.98
409.43
437.28
792.75
370.86
483.09
424.76
359.17
316.85
288.77
257.30
267.97
145.42
213.70
261.12
330.68
358.03
381.26
321.74
310.10
364.30
350.18
375.77
471.92
243.54
399.62
416.97
322.39
1099.61
798.38
1025.51
1286.94
1143.80
648.73
409.19
443.00
465.95
717.24
876.27
731.75
452.51
82.47
424.52
287.14
339.60
611.59
1082.82
1085.47
450.20
245.47
306.21
49.79
241.84
269.50
201.82
205.22
499.53
401.52
261.51
481.70
581.13
505.32
685.08
591.00
447.50
465.03
519.86
254.30
261.23
498.41
148.19
192.58
458.27
503.01
291.98
651.94
522.44
2288.84
464.74
408.29
501.70
636.04
727.30
743.02
697.94
517.01
470.21
460.19
369.74
390.30
904.47
459.61
657.22
565.61
475.44
588.23
444.36
317.58
321.63
934.51
1028.10
649.91
1832.84
681.31
585.85
475.72
329.98
142.52
217.26
278.02
575.62
624.40
338.16
1.54
172.01
496.40
418.40
548.72
667.07
534.38
244.45
176.06
329.69
292.81
241.52
177.87
507.53
463.31
478.36
219.37
120.33
230.02
312.60
67.53
197.33
159.31
268.04
341.25
517.40
394.42
881.07
345.27
317.13
401.30
444.13
609.86
608.30
843.17
730.09
593.84
658.29
588.15
576.57
780.58
294.81
293.61
305.35
638.55
522.30
354.18
156.55
32.70
447.91
420.20
269.93
473.94
589.24
576.43
294.67
494.91
462.15
323.36
373.12
227.53
113.57
282.61
307.98
214.85
889.29
249.54
215.47
283.65
361.51
555.06
798.36
577.17
219.11
170.29
359.37
452.09
240.30
486.53
238.26
627.94
417.89
71.41
309.17
242.29
256.83
275.73
159.95
221.60
249.50
256.00
360.04
237.19
206.00
220.50
159.08
329.07
293.64
381.30
229.04
185.62
274.49
292.11
998.34
599.46
542.19
436.58
355.96
379.02
508.20
431.56
398.53
192.68
114.16
251.45
320.61
646.73
153.26
104.38
339.58
314.96
305.23
246.56
569.52
603.15
774.91
572.61
270.57
236.74
567.70
132.87
219.59
301.03
339.25
166.95
288.37
177.74
150.59
555.39
565.74
504.98
594.37
723.93
665.51
605.54
399.88
122.50
275.73
641.40
677.71
164.41
417.53
628.18
601.19
1294.30
488.67
497.85
145.31
294.45
309.75
478.30
300.06
348.78
554.37
473.50
401.32
357.46
265.64
291.78
474.54
767.48
775.15
543.96
399.09
362.06
225.64
388.97
390.26
202.63
1024.75
551.57
616.48
648.75
759.72
651.01
541.56
264.34
386.19
1007.52
820.99
804.98
764.32
587.98
226.18
820.42
879.94
764.59
224.36
148.94
176.82
216.69
308.62
435.76
1143.86
210.65
417.37
238.35
230.31
262.97
394.54
688.71
1116.50
1113.51
773.25
223.52
1880.91
587.04
1074.21
1010.30
470.93
233.49
317.68
298.73
126.41
224.02
254.32
367.80
832.24
365.75
188.29
115.12
382.49
317.35
545.29
500.63
374.32
398.43
621.90
590.96
719.29
769.00
76.59
951.73
570.09
361.67
856.59
1049.00
649.60
930.40
828.38
807.40
687.18
359.41
309.66
120.94
287.28
193.03
321.01
494.90
282.67
252.33
202.80
189.58
231.32
1153.52
591.32
442.64
264.53
193.04
280.92
218.14
278.69
338.73
375.51
185.38
448.69
312.55
531.12
315.96
394.22
713.69
884.78
927.43
947.45
727.32
429.90
271.35
631.53
663.45
990.96
469.69
332.12
287.34
279.41
403.96
471.73
544.45
521.27
500.84
473.03
255.77
2033.02
314.34
372.14
468.24
704.06
778.03
422.30
291.58
210.95
371.42
168.52
324.24
819.14
1355.54
781.84
912.30
1223.87
1281.06
596.13
385.94
935.63
1211.07
1317.33
1301.36
1578.30
321.22
520.00
533.24
546.70
864.48
692.72
249.77
289.62
871.32
862.02
583.79
317.21
404.06
723.74
884.30
683.70
697.53
326.61
245.00
320.03
150.40
331.88
327.62
678.35
219.49
223.39
531.74
739.15
654.52
455.30
626.00
706.95
747.58
742.12
693.21
1250.39
246.11
279.81
294.89
210.71
322.88
287.16
341.86
216.84
423.08
391.18
474.82
528.65
425.69
371.84
139.04
427.18
580.26
721.22
546.69
628.76
596.01
169.51
261.96
296.00
1193.19
816.23
823.05
363.77
501.62
879.29
1029.64
680.83
218.96
421.29
801.69
926.82
996.78
793.82
381.02
187.93
761.28
1020.88
787.79
363.25
216.54
241.09
308.30
846.85
580.21
544.14
493.56
333.66
542.72
905.41
1327.34
740.93
370.25
397.85
393.89
2083.29
573.03
610.79
363.34
201.19
343.42
269.43
358.80
536.88
541.21
477.13
409.00
620.21
719.71
471.53
267.59
431.96
208.75
237.37
344.01
200.60
255.59
418.21
936.24
1325.47
1718.91
590.66
465.80
246.51
298.87
179.07
282.08
819.21
887.73
348.75
123.51
270.24
1078.38
317.28
108.50
639.74
816.66
451.94
229.63
374.67
368.12
361.42
583.06
750.66
639.68
599.45
150.94
454.58
362.75
369.02
396.00
335.97
426.63
635.59
582.97
563.84
974.74
1661.74
1264.30
1654.86
1621.18
971.46
550.88
337.85
164.86
937.60
1579.21
1668.27
1005.06
378.28
431.46
542.55
278.14
198.15
394.39
276.72
528.31
413.40
786.00
1777.89
2085.69
1438.85
883.33
242.47
455.92
560.31
292.81
329.97
357.35
266.48
316.67
240.66
144.52
394.44
348.38
559.36
783.21
1117.40
1383.98
1192.50
968.57
420.08
687.48
1199.29
2689.12
684.30
1057.05
611.20
358.49
680.58
697.96
739.65
513.78
550.16
663.33
360.96
2262.81
248.17
628.33
785.02
332.74
456.95
496.07
325.62
299.51
283.87
449.87
635.98
673.11
890.71
802.11
453.63
315.05
259.38
341.10
209.57
214.05
422.21
1069.31
1177.70
903.48
669.44
212.98
452.33
741.50
1200.51
782.50
657.83
168.00
497.54
618.63
64.36
203.02
1152.41
689.91
465.64
600.14
999.19
1038.81
692.76
209.97
261.12
849.91
1122.13
1064.54
780.84
468.19
506.82
842.69
1041.44
468.63
380.17
352.21
681.11
964.26
598.59
1013.74
331.88
686.48
514.47
422.28
407.62
542.01
1094.63
898.82
179.60
374.07
453.86
1267.19
554.87
285.08
360.46
495.38
544.51
409.09
718.63
842.97
459.47
330.58
374.35
2501.52
300.74
165.15
242.35
331.95
484.60
729.97
759.17
723.88
604.79
446.67
166.00
2292.57
270.06
184.63
318.11
490.83
583.30
390.18
174.49
744.81
1447.62
1436.28
1133.41
837.36
589.63
274.21
719.00
634.71
649.37
421.83
180.37
235.70
425.59
982.32
1788.26
1705.79
346.96
787.52
1972.98
2025.93
1590.63
903.83
288.04
195.03
68.30
121.04
260.67
546.57
456.22
68.47
176.65
234.89
469.61
319.29
324.99
530.92
624.47
634.23
444.72
208.99
382.18
927.24
2012.87
2587.23
2320.19
1159.03
286.10
159.45
772.99
959.17
618.94
1226.95
564.04
114.64
199.32
484.41
553.51
363.99
338.35
885.83
891.43
406.60
306.74
1263.16
1068.11
1231.67
1028.43
420.01
498.40
2061.02
2293.71
1237.24
577.94
796.52
441.88
362.08
199.90
131.38
417.35
621.23
635.62
849.18
1366.98
2027.77
1595.88
916.97
335.32
643.81
1141.92
1225.08
1291.29
1647.68
1355.77
641.25
282.07
289.78
600.43
1139.97
1245.05
389.10
184.59
519.02
830.65
1054.55
1539.61
2112.51
1671.20
719.83
498.89
2195.13
1235.34
649.74
232.59
329.12
395.71
255.25
725.98
1268.63
1194.22
675.52
177.01
1434.78
438.06
284.06
516.42
494.07
405.07
312.80
561.31
667.66
398.14
306.34
1444.82
1237.24
465.34
958.36
1154.09
892.92
510.37
436.21
549.04
938.04
836.75
465.79
223.23
1269.68
410.43
311.28
383.13
537.44
1141.27
724.79
265.75
223.18
270.49
384.25
601.41
841.81
583.69
596.28
524.08
231.31
254.28
167.15
240.07
330.71
457.05
779.31
1542.70
1029.93
535.16
1681.78
2596.28
2896.20
2901.57
2322.80
414.40
1436.80
2154.92
2100.71
1581.65
1129.83
362.56
748.26
326.37
410.98
125.59
227.74
425.99
786.57
834.26
853.59
360.30
459.84
352.27
581.71
592.91
772.12
676.67
227.33
224.92
392.68
936.46
1320.22
1117.44
955.82
347.68
411.54
654.38
773.49
253.38
424.81
691.40
536.19
307.29
186.67
356.60
621.94
332.86
688.83
454.50
516.30
349.00
285.09
338.21
707.08
1136.89
694.18
374.43
587.44
466.41
242.59
414.47
334.93
286.38
732.22
1229.12
1292.04
965.82
1183.14
1016.41
866.61
900.48
1067.38
797.65
790.35
1152.20
992.26
236.25
1347.04
2257.73
2460.71
2216.00
1723.57
582.68
277.73
414.32
309.47
603.14
1722.09
1042.45
422.71
1878.87
1260.19
458.30
453.76
406.75
431.49
246.52
476.32
557.75
453.47
371.37
494.39
317.18
636.95
1336.72
1434.77
1164.82
387.46
153.89
750.73
692.25
458.41
568.53
1014.16
686.12
568.57
1218.93
1233.90
994.62
486.05
324.78
313.56
140.25
250.78
544.36
663.75
410.18
718.01
1433.96
2005.73
1791.09
1710.28
1952.32
1481.88
551.28
302.68
159.16
458.15
1535.84
889.40
345.99
829.45
1855.82
1688.82
1451.17
981.06
308.58
730.12
347.75
868.68
289.01
428.06
553.66
449.02
241.51
255.08
452.18
589.70
864.04
687.45
546.52
578.23
381.94
671.02
966.68
1807.54
1551.38
499.13
516.06
1146.64
1011.76
386.78
207.91
143.24
281.82
393.95
53.40
243.45
395.53
334.04
215.10
207.13
396.76
897.51
255.21
593.47
582.95
2054.18
1671.75
1357.05
674.09
333.47
755.85
418.57
491.49
871.02
1125.32
718.53
261.63
495.55
296.05
158.77
191.82
296.11
930.37
2168.29
2284.92
827.33
146.88
337.10
421.00
870.26
708.63
941.12
964.12
1685.45
1969.52
961.69
392.56
288.59
421.35
301.06
2030.16
608.29
1317.90
1806.07
1608.02
624.01
398.93
251.42
534.79
290.71
370.32
757.96
2100.22
1855.79
824.80
270.30
186.44
249.57
112.20
557.55
528.70
522.51
488.96
1164.22
2930.12
1102.00
283.34
464.06
487.58
609.80
476.44
318.56
295.28
469.63
599.41
497.68
2265.73
2851.93
1365.73
363.77
141.32
287.62
653.95
480.63
333.01
169.46
438.24
887.50
787.70
434.02
544.76
317.19
314.46
425.85
805.93
1325.88
517.89
325.68
861.85
780.65
1006.34
977.40
1518.47
1083.15
328.14
288.08
726.93
1199.38
1102.66
454.64
261.22
219.18
657.09
517.09
246.84
311.81
247.44
356.35
494.88
474.02
293.03
277.15
240.45
455.19
545.95
519.99
580.58
924.13
1200.52
545.39
119.70
460.27
558.69
1508.21
1693.92
2124.76
1171.11
496.15
902.39
783.19
427.17
357.04
977.27
1027.99
475.57
307.46
933.89
1391.91
2008.52
1016.21
469.05
555.34
590.31
353.36
125.90
330.73
503.62
579.15
248.38
1416.18
1698.38
932.82
667.77
614.94
674.53
435.49
184.40
814.82
730.50
495.62
176.75
460.51
1338.37
1001.62
623.72
443.94
553.87
379.28
453.91
479.24
423.65
650.73
941.39
685.37
1005.36
360.81
733.80
564.84
296.84
361.11
828.87
753.20
306.57
407.94
524.06
448.97
1314.19
495.21
493.66
580.05
554.66
834.10
201.37
1547.75
2154.66
1704.59
1500.98
1129.42
613.78
708.69
1179.86
1056.81
274.92
374.16
308.82
501.89
259.17
666.90
697.65
685.53
1216.72
710.20
268.35
418.52
382.67
786.91
617.32
281.48
452.24
332.27
368.76
213.11
1550.57
355.57
448.60
170.00
269.64
388.92
430.45
712.21
909.38
784.79
393.02
182.71
1883.76
994.54
600.03
332.24
391.10
703.96
1542.85
2065.00
1781.68
1120.32
1116.34
219.23
645.57
1117.58
1524.12
1564.47
1064.70
229.31
270.07
236.14
620.05
600.92
625.11
626.54
633.42
772.90
979.40
954.11
531.49
610.72
489.92
873.27
776.42
584.39
2132.62
2200.27
916.00
338.92
169.44
205.38
344.52
327.49
363.42
460.16
232.51
280.02
459.32
421.29
881.00
1260.01
1259.53
643.40
360.56
1154.42
2497.84
2240.27
446.40
945.16
657.95
805.29
1058.05
1790.54
1252.82
687.42
227.29
353.73
309.58
156.73
369.34
234.63
354.29
751.22
376.17
1006.80
1022.95
727.66
947.21
741.08
174.11
242.06
177.43
373.35
1896.70
635.61
417.37
826.79
1551.52
1550.32
1087.77
402.11
170.72
328.03
295.49
864.20
2066.79
1825.24
459.87
1626.55
2481.23
1536.22
825.55
657.82
378.99
1051.88
1326.03
830.71
494.22
178.69
310.14
1033.62
2179.60
2129.67
853.26
180.14
1571.77
2405.76
2404.40
2081.40
945.18
344.56
509.12
143.64
248.98
533.08
344.96
360.43
456.16
385.37
181.01
943.03
1790.40
1016.31
245.71
545.33
1269.80
1207.80
1459.09
963.00
511.22
1136.28
1919.92
1518.15
1256.91
1036.24
357.03
344.91
447.53
232.10
394.28
915.58
1283.38
463.08
722.41
1673.85
950.60
482.81
403.82
133.38
635.43
1068.78
1431.82
1590.91
821.86
2250.37
576.91
213.23
504.97
443.18
384.49
542.90
339.06
366.23
269.67
727.72
712.55
707.13
891.63
317.66
573.52
338.14
196.70
330.22
540.14
499.35
498.36
1431.48
2462.57
2332.29
1283.07
318.74
412.12
1048.63
1171.25
1552.32
1285.19
351.19
327.10
319.43
361.61
934.33
405.05
408.70
486.18
1018.62
1204.12
323.28
1630.10
2609.45
1431.09
398.83
943.29
2464.44
2908.11
2888.40
2387.39
716.91
832.30
1896.75
1901.73
2677.08
1764.34
205.98
828.59
618.77
289.24
754.32
780.45
436.86
367.75
647.69
760.31
672.05
238.61
511.98
465.64
330.13
207.87
217.19
196.50
113.67
351.76
408.80
469.69
567.16
390.63
383.02
1654.44
774.18
762.17
565.79
687.23
844.26
541.90
614.12
993.44
964.56
612.63
273.52
641.35
1032.73
1180.32
808.58
725.94
1609.58
1901.83
1159.46
425.20
1607.57
1447.41
2325.02
799.43
266.96
591.96
171.64
993.63
1295.77
927.84
789.84
351.83
264.04
1843.39
506.63
642.30
283.97
1029.04
1869.57
2203.26
1779.58
641.02
604.57
1613.25
1782.88
1014.63
396.97
1397.75
2440.70
1732.09
687.17
350.38
315.53
148.41
117.61
723.55
1956.95
2363.02
1365.52
576.37
273.90
903.33
2035.65
2242.00
1586.04
508.30
610.10
1199.59
1809.19
1496.95
382.45
937.00
809.25
286.82
502.90
550.14
333.91
272.09
301.80
669.79
2192.60
2242.72
842.15
424.10
387.45
269.51
699.54
196.34
1193.35
1947.56
1270.26
734.31
294.30
297.60
663.78
1751.56
2108.09
1788.76
1006.19
326.13
263.36
764.01
1387.55
1703.56
1127.70
313.03
454.08
450.65
365.44
481.44
260.91
245.48
1079.14
1202.24
1126.52
1762.52
1575.66
568.84
699.10
1879.34
1427.27
294.32
460.37
263.80
467.31
465.15
1158.36
448.85
804.14
941.66
390.54
396.00
610.58
1060.16
1663.60
1399.01
500.49
2408.13
2412.97
1061.62
756.54
241.24
1052.37
1424.39
2023.12
2333.26
2800.94
2981.68
1270.63
1343.47
2856.02
2705.55
2161.82
1080.82
584.76
491.17
215.46
283.61
392.53
392.82
1775.97
902.76
684.91
402.78
252.21
601.98
512.81
219.13
522.53
624.22
362.22
601.47
864.30
649.67
1735.17
1740.43
795.72
529.18
824.95
196.17
703.10
946.95
486.05
524.49
1677.88
453.93
149.54
463.07
568.57
1670.71
1705.74
1296.89
594.05
553.63
242.57
323.57
1110.78
379.78
345.72
810.43
1158.52
821.44
641.77
392.53
680.10
949.48
451.06
805.64
1278.07
277.60
392.95
239.04
357.25
250.41
1026.45
1886.51
1654.79
1005.41
599.49
1863.95
1821.18
1607.61
1510.71
1242.68
866.36
476.85
914.08
1914.00
1891.49
1659.55
812.02
440.94
1424.90
2956.12
2530.27
941.38
186.28
112.84
554.95
537.57
862.79
1337.16
1060.21
461.86
670.43
1465.33
2067.29
1863.47
1161.62
536.82
225.40
214.97
310.10
1671.04
686.28
490.22
721.10
586.38
570.43
449.66
337.03
171.25
424.28
1032.73
1518.64
927.88
413.92
303.50
395.53
763.86
913.33
872.65
411.93
951.75
1268.20
1821.31
1569.79
1096.16
706.33
778.96
979.36
815.18
590.82
320.43
569.96
660.21
931.07
569.44
819.58
680.62
737.56
485.86
249.94
754.82
1307.04
2191.61
895.39
945.69
2306.07
2404.56
1619.41
345.96
1292.22
1573.93
1279.39
442.56
664.90
1297.81
1765.42
1234.33
472.59
2030.12
164.10
247.30
186.97
486.52
525.71
313.66
421.69
742.74
467.29
241.68
734.41
1964.32
1957.65
1208.80
264.93
595.74
630.99
998.52
1461.96
1226.32
749.05
333.46
750.40
770.62
982.68
2218.30
2830.55
1390.19
417.98
545.86
272.07
1667.20
2889.40
2020.27
1391.15
213.12
417.51
325.18
373.12
359.20
1725.69
1829.33
756.83
296.87
972.35
1530.94
958.59
476.33
328.98
201.50
511.10
239.30
329.80
417.22
228.17
462.97
439.77
677.23
709.65
319.40
443.46
795.33
541.60
756.67
1483.20
1471.14
898.47
657.22
1759.20
810.97
736.87
888.96
1369.76
1169.57
460.01
341.34
452.88
806.76
298.96
262.00
399.90
1292.37
349.75
613.48
951.08
770.75
220.94
455.36
504.02
400.93
302.93
579.65
839.76
1740.79
1326.42
786.74
383.01
274.37
1005.32
1502.26
1231.87
656.83
490.75
936.06
580.17
312.66
667.84
844.08
1357.01
1210.59
975.86
496.30
284.57
286.36
416.86
1087.00
1334.11
1178.04
537.78
202.40
316.61
522.22
437.97
715.32
1194.99
1614.59
836.66
184.74
2911.52
1296.80
280.97
654.16
857.41
647.73
555.86
748.57
420.60
535.79
697.47
1401.31
985.87
613.10
1437.58
2454.16
1251.80
599.59
902.33
562.19
313.10
272.15
626.81
2389.41
382.70
212.62
208.97
347.48
418.26
495.44
205.82
170.05
490.49
1005.75
1142.85
1044.46
718.18
450.88
506.95
545.31
766.46
2017.73
2744.24
2114.38
1091.28
229.64
273.87
1318.17
942.07
1619.97
1148.77
426.46
237.07
1178.61
1896.31
1054.33
94.68
436.86
587.69
916.50
871.25
404.53
306.36
601.14
461.58
553.14
1148.91
931.87
1146.02
923.15
326.12
466.69
1440.96
1618.03
2351.76
1972.80
862.31
349.78
271.70
479.86
670.82
319.18
915.63
480.41
924.66
1014.36
608.59
260.76
180.68
201.89
270.03
284.68
759.13
720.33
1476.86
317.00
956.32
1322.58
1687.53
1319.30
468.37
372.96
482.74
393.70
286.53
288.13
444.65
376.70
322.65
247.99
264.87
470.46
367.23
353.11
265.38
293.39
573.93
1536.27
1150.83
1204.62
1475.88
880.80
444.14
83.45
507.76
566.77
595.96
2106.94
2664.33
1468.36
947.50
1398.48
511.54
674.55
1949.71
2387.83
656.09
888.11
1130.81
573.96
331.09
590.80
225.65
163.40
335.11
694.80
321.39
654.37
687.63
572.73
195.19
359.99
541.48
528.95
863.56
644.38
501.28
351.35
348.36
305.93
260.25
260.79
242.75
538.63
654.31
520.68
1395.12
615.61
966.43
1014.35
373.63
249.01
913.73
1901.20
2001.84
1410.29
728.14
294.57
804.86
370.42
366.33
206.54
354.99
296.26
182.46
548.61
447.02
249.57
444.06
592.65
1181.40
353.75
262.31
197.71
350.52
448.88
153.31
238.70
1070.38
1485.00
1356.62
1348.05
1484.14
355.59
997.80
1128.10
775.68
339.62
276.66
285.57
218.73
271.56
478.34
745.01
939.40
481.38
290.16
285.93
152.95
352.79
349.16
549.24
444.20
509.79
425.30
502.00
1400.29
1249.48
1607.96
1600.73
996.58
307.51
668.02
737.73
357.95
756.54
956.94
1026.21
409.01
386.98
535.58
601.02
1044.32
1410.10
1345.87
164.59
959.12
1530.10
390.85
952.78
304.35
442.99
948.78
1047.52
1676.65
1975.92
1216.68
497.42
1606.18
2190.66
2934.00
3024.54
2517.69
1613.83
291.59
1092.48
1242.05
639.08
389.75
627.61
896.87
971.28
826.21
486.13
260.78
285.82
281.37
341.58
380.32
352.19
290.76
658.28
623.31
256.37
819.25
477.03
441.64
794.39
1105.97
1454.46
1774.35
2248.56
2225.66
1255.33
351.83
1889.38
1338.59
501.18
255.53
1694.30
2865.13
2762.61
2547.63
1455.76
361.92
871.78
1041.88
694.20
775.85
1394.25
1800.91
1841.67
1745.42
2918.66
2430.80
962.93
270.01
342.14
430.52
346.87
415.02
591.89
455.32
304.85
322.28
189.07
648.72
784.59
595.66
342.25
242.80
498.25
763.16
648.59
445.61
586.88
420.42
630.67
791.47
903.58
1182.83
1047.14
754.50
586.58
903.67
1402.40
839.10
524.11
1609.51
1932.27
854.61
305.55
285.06
319.51
323.26
666.96
1377.73
1752.89
1750.09
1522.71
1006.45
315.43
1456.37
2983.45
2222.28
524.12
2423.72
2918.69
2078.91
1029.59
388.90
705.69
1363.39
1568.44
1485.62
905.87
533.27
293.59
515.36
385.28
611.14
795.51
782.39
744.47
270.84
307.06
501.00
1320.86
172.79
334.00
427.32
462.81
279.29
609.80
1323.79
1058.73
733.93
821.77
385.46
1078.80
575.74
330.76
307.72
357.19
260.96
230.59
1311.00
2336.97
1660.41
464.19
321.68
622.06
314.27
132.21
513.79
384.55
407.08
273.75
220.17
701.05
1240.90
837.25
294.29
491.26
529.19
588.91
445.43
307.27
1383.31
782.02
197.77
318.50
650.10
939.69
1534.35
875.27
475.78
577.23
1265.92
1730.45
1220.22
453.05
110.45
377.93
201.25
183.46
239.32
1583.76
459.24
443.54
648.26
533.23
109.53
328.65
604.32
819.10
643.92
646.50
267.11
372.91
517.14
587.09
654.00
978.00
1657.12
1652.19
472.04
897.60
1060.41
509.98
398.64
463.68
404.64
809.76
1307.92
1150.08
337.35
705.93
1614.27
1467.48
645.88
326.71
915.91
951.07
781.62
990.56
1496.60
1589.37
666.38
636.64
482.70
551.87
225.13
787.52
2825.14
1695.60
1555.83
1032.64
488.42
413.70
343.38
29.90
536.91
621.01
780.68
982.50
1062.76
394.72
366.12
249.81
324.72
432.80
470.74
438.40
898.46
388.54
668.98
966.22
1245.95
601.00
239.28
391.78
418.83
719.21
554.35
309.83
110.73
247.48
272.52
406.93
1086.74
432.10
824.93
1199.84
817.67
1003.28
1039.27
413.11
314.25
311.34
531.88
730.80
948.52
310.52
444.03
482.87
631.85
282.25
593.14
451.53
311.31
988.86
1400.63
1069.73
1001.64
486.78
256.95
303.22
693.54
566.11
470.74
1126.05
1219.38
553.37
606.00
1710.41
2462.76
2196.37
1635.16
828.48
1057.79
2961.15
2830.12
702.06
822.23
1028.07
1280.20
1287.27
516.05
203.29
247.71
488.86
645.33
867.82
592.38
261.87
855.34
1681.02
2834.52
2145.56
1723.47
1664.64
816.52
134.18
216.83
321.83
296.71
291.64
168.41
252.97
836.40
699.32
673.43
316.08
469.64
855.33
1028.26
1056.21
542.74
301.65
138.52
358.99
317.46
291.11
318.33
327.24
439.07
515.67
293.39
614.15
967.93
771.85
305.38
241.03
696.10
354.84
479.35
584.17
674.14
481.89
868.79
965.90
850.81
665.73
701.56
372.46
752.59
264.51
160.19
659.86
375.72
314.13
206.06
460.35
1031.44
1442.22
1245.07
582.38
907.33
281.33
360.87
587.06
468.27
514.33
841.36
2078.37
2331.80
2242.75
1934.27
1719.30
845.68
1158.68
2176.42
1802.95
1031.31
279.84
765.88
378.33
517.89
489.25
362.41
1089.86
142.18
260.56
189.51
232.22
1098.86
1992.39
1430.59
332.42
1294.36
1602.29
1221.09
936.79
712.36
1022.09
1230.84
401.47
236.54
150.32
475.46
935.81
1250.15
1102.67
1861.91
242.93
173.57
796.83
1039.12
1290.49
1357.49
784.94
353.71
167.38
439.95
948.44
1180.77
883.67
411.94
199.13
363.04
255.82
442.74
413.86
791.93
580.24
277.69
211.91
267.78
355.39
313.81
197.91
298.30
747.41
1523.75
1637.27
1752.80
1256.30
632.02
297.69
374.56
737.69
670.91
115.47
294.03
913.34
1969.26
2638.96
2070.14
618.39
543.94
2263.58
1194.01
450.96
238.50
260.18
178.56
314.69
743.56
772.38
434.54
250.21
285.09
1333.10
628.97
550.28
112.83
267.78
56.37
438.49
784.36
504.89
432.69
552.81
328.21
226.91
384.87
396.07
293.30
338.09
640.85
696.50
581.31
331.66
309.96
506.94
628.56
248.76
1271.69
1774.32
2016.68
1876.45
1094.38
210.97
714.90
936.30
1111.49
479.63
312.95
541.97
721.79
777.73
1081.99
400.89
688.47
415.14
275.63
341.65
329.94
542.39
352.31
583.60
869.85
1103.02
1387.61
1283.36
428.80
506.48
624.50
400.79
663.41
994.91
865.74
521.32
322.38
328.30
319.56
376.92
763.99
744.01
549.63
536.86
537.73
1094.76
1248.15
1716.17
487.62
0.00
224.79
297.92
562.15
150.28
22.62
204.87
399.82
664.47
1158.19
985.45
522.71
240.09
251.44
561.04
403.20
133.55
288.91
730.00
784.96
733.32
414.87
764.49
1133.99
1030.73
432.14
847.48
1031.25
754.03
440.57
333.59
416.32
683.43
962.38
1797.85
1161.37
252.98
1254.11
2389.58
2601.07
1910.12
967.53
278.52
566.06
854.69
589.98
434.42
609.74
1504.26
1285.64
847.25
479.02
491.07
408.65
249.65
279.99
456.81
589.69
681.19
520.61
213.63
232.84
229.23
192.45
217.05
603.05
761.39
499.56
250.50
339.55
1132.24
168.41
184.79
386.21
510.53
282.98
756.08
725.41
217.10
874.35
1224.73
1280.77
1846.52
613.98
553.44
512.09
969.27
2528.58
2971.24
1202.51
672.11
2416.34
2611.04
860.17
351.48
180.78
199.04
399.05
318.96
530.89
82.06
291.23
125.42
422.15
507.19
319.18
456.71
401.16
440.58
999.96
1158.08
660.18
311.45
599.19
555.97
559.97
597.55
796.68
616.48
268.70
208.61
359.03
458.91
560.19
530.45
640.26
277.40
139.38
108.25
226.46
956.60
524.95
1347.40
2038.00
1864.80
1859.11
1520.86
579.84
1281.78
2935.75
2883.47
1471.95
987.65
2000.90
1530.88
879.54
515.30
536.69
131.57
425.79
574.34
655.10
362.59
1432.04
494.54
319.83
269.47
383.53
804.00
1186.07
685.48
304.98
548.54
1294.12
871.98
1363.24
407.59
285.99
839.82
1682.09
1440.11
1149.96
797.47
986.78
766.61
965.36
558.91
1031.29
1385.14
499.01
826.33
2330.56
2806.43
1955.10
1406.47
882.71
393.32
322.60
252.73
162.06
340.64
634.28
1272.35
1557.12
1233.85
1280.58
1608.39
1320.38
662.41
755.31
395.79
1104.66
491.98
333.36
930.45
819.89
349.61
227.17
1141.71
1367.75
2085.19
438.04
850.55
813.81
518.10
409.47
798.22
1057.21
979.65
582.60
263.01
787.84
1492.43
1201.80
889.59
331.47
269.97
343.36
492.89
242.65
1140.84
991.61
394.24
380.52
516.31
769.75
414.08
374.07
507.34
689.39
490.37
290.91
635.43
1087.64
1233.14
543.23
598.88
265.98
354.16
467.75
453.27
418.66
281.05
531.03
561.42
447.68
529.34
199.72
341.12
611.28
322.25
330.63
347.97
230.76
143.95
167.32
434.61
421.86
338.07
384.02
695.05
2232.99
468.21
474.88
162.96
742.99
886.14
849.10
946.51
824.09
342.72
445.28
520.83
1072.46
1388.33
1089.88
529.15
393.18
387.82
498.97
566.00
363.98
209.16
713.40
869.40
793.05
1665.83
2690.20
2361.98
1291.11
341.81
719.04
1230.61
1764.81
1107.73
517.41
1034.07
152.63
205.97
308.34
438.78
662.19
318.59
708.13
523.59
277.12
306.42
197.74
629.30
1084.25
1176.87
1152.06
1458.12
1390.53
1124.64
1103.33
1511.99
1838.65
1165.16
555.81
435.84
1516.13
1765.71
1404.64
1294.88
345.00
278.76
239.11
220.66
907.72
1504.25
1556.61
477.29
221.01
457.89
577.52
140.75
213.44
409.17
444.13
223.45
257.17
418.99
2200.85
243.42
110.05
707.28
953.74
679.55
472.85
357.20
818.52
1229.21
1108.61
1058.15
1888.68
641.73
333.16
449.28
455.56
555.74
649.79
224.10
653.77
540.04
633.78
1114.94
2121.41
289.78
685.16
1351.66
1421.22
1722.58
1115.50
179.42
1083.47
1243.94
256.28
206.81
268.32
291.68
174.35
230.26
518.44
657.40
466.44
234.65
955.24
697.64
295.66
664.36
456.28
559.21
340.02
695.31
671.82
336.40
563.61
256.26
210.78
597.53
1515.77
1743.74
2033.05
2013.56
1636.52
418.51
597.00
604.92
256.40
501.74
434.72
186.11
482.00
807.27
1943.60
982.73
937.93
398.37
275.72
641.47
378.76
371.05
518.19
601.88
408.99
264.32
831.74
952.32
1519.95
1777.35
1560.72
717.83
376.17
2059.11
2237.02
1969.08
859.95
1765.83
983.23
691.54
790.68
1150.51
1204.64
814.95
708.84
720.24
655.92
213.40
2345.39
377.14
200.39
253.91
345.81
750.00
821.59
969.74
1283.23
1483.80
1147.67
526.80
1041.31
397.26
532.15
492.47
469.20
175.40
414.79
763.31
1010.69
275.14
251.57
229.39
1091.38
461.37
280.23
111.70
245.20
43.21
451.49
216.34
257.44
271.89
745.42
379.77
723.41
827.51
1011.49
810.05
500.87
325.85
294.37
197.25
163.83
245.00
553.72
690.88
825.95
672.03
218.39
882.05
731.87
471.63
1370.42
2211.37
2533.54
2451.72
1352.50
361.88
1114.80
542.76
408.39
831.45
849.94
283.04
387.76
423.62
296.32
138.32
234.34
164.47
1196.85
305.43
303.51
527.75
313.29
455.19
965.37
669.45
658.29
1592.35
1774.82
1209.44
1433.53
2402.86
2480.77
1539.78
945.13
897.08
394.58
267.83
332.21
237.23
494.19
907.10
437.65
418.18
409.33
543.24
930.15
668.26
460.49
383.28
509.39
470.85
178.35
388.74
588.89
489.37
321.14
202.30
781.36
972.35
881.01
821.07
766.70
593.75
636.12
989.71
730.44
353.65
546.33
311.77
631.33
1302.94
1070.25
850.91
104.32
326.05
576.33
942.26
248.32
515.40
364.43
302.25
372.12
413.66
494.02
234.56
584.51
858.04
999.32
376.87
398.05
349.88
228.81
212.70
402.44
213.93
256.43
141.35
219.28
740.70
1423.59
1185.36
926.68
311.96
177.40
329.03
305.22
317.70
303.92
335.00
362.08
114.63
179.16
144.55
2128.31
195.62
169.91
87.91
482.57
686.50
985.79
854.65
436.04
229.29
480.38
726.49
347.06
833.15
1562.88
1190.72
615.53
366.89
1125.95
1470.79
1255.96
599.28
357.96
796.82
1270.84
1269.88
1269.54
1288.06
942.06
505.89
426.33
879.71
756.64
363.08
359.82
1084.45
214.99
765.26
1304.72
892.05
300.03
788.55
480.85
337.27
165.98
582.36
851.24
1225.69
448.27
180.08
615.18
263.10
367.12
678.24
517.85
458.41
286.38
437.34
461.38
805.40
1273.87
1247.90
525.20
612.89
758.55
219.13
988.53
1314.73
892.33
382.75
276.77
1099.87
446.85
857.87
1594.50
2337.13
1867.51
1052.36
196.71
918.37
731.65
543.06
788.59
553.36
282.16
189.00
366.90
616.19
905.58
592.30
368.78
349.09
280.52
306.80
225.98
559.54
39.81
309.39
250.27
305.20
477.03
385.61
478.83
211.70
239.64
594.15
417.34
400.40
391.32
418.93
317.98
185.80
175.70
232.57
622.96
696.30
418.21
518.24
944.88
764.15
1082.23
372.89
519.17
564.93
361.77
261.80
325.67
280.74
393.44
271.65
453.47
350.50
529.00
949.26
1257.88
1084.76
687.93
479.07
288.69
1224.57
1272.75
356.94
808.46
759.45
1422.71
276.42
448.60
878.69
1430.01
1576.36
751.25
935.58
1732.22
1411.94
1289.11
1019.63
446.44
195.53
511.63
785.91
1031.78
799.91
668.01
566.81
475.40
48.35
765.28
1532.42
127.32
267.84
330.96
345.19
271.81
563.32
1112.51
1226.47
1102.68
1226.01
1247.00
941.71
194.19
946.50
960.28
428.66
506.72
584.93
446.53
548.49
589.69
260.11
216.46
683.38
624.65
512.00
468.40
432.68
401.89
417.25
427.11
335.94
341.67
634.48
850.12
720.67
635.42
306.62
87.83
334.04
490.34
451.66
259.95
219.23
138.08
178.94
362.82
685.82
1650.07
1392.61
1451.40
1018.25
540.60
121.95
241.32
254.18
283.07
525.73
448.83
334.81
1536.22
1339.67
1019.69
350.98
467.10
1703.29
1917.09
1589.97
616.03
777.41
1634.69
1545.47
1141.57
868.46
765.04
681.00
190.47
196.60
376.30
327.87
794.87
739.66
1261.12
1694.44
1181.13
647.38
370.66
617.60
1038.39
1097.47
622.13
611.62
170.67
696.66
2963.32
1042.86
446.27
244.39
529.13
894.59
803.69
505.43
2141.66
2068.00
927.28
14.69
696.21
382.88
374.55
423.74
542.04
633.62
238.25
362.46
668.32
973.16
670.24
316.74
1523.23
652.70
662.35
397.08
189.80
67.60
234.95
129.96
173.93
243.01
329.44
126.41
159.25
229.79
392.96
155.10
216.55
381.86
381.53
577.88
514.76
578.24
535.67
317.35
272.54
326.22
338.18
248.79
480.22
456.28
310.18
410.32
189.33
351.67
321.47
494.55
682.38
554.85
2146.75
601.73
690.89
666.82
439.86
223.63
227.85
277.83
280.64
272.00
399.59
245.35
242.19
290.09
714.21
174.28
519.32
678.17
776.07
350.87
479.54
457.39
325.39
752.24
558.31
239.49
312.07
48.57
467.98
548.98
1071.45
1501.40
928.93
515.64
742.85
472.58
711.57
540.35
567.98
753.60
180.72
188.38
137.57
217.93
283.28
349.66
343.23
148.94
416.85
746.24
315.17
153.38
368.09
534.34
333.75
397.95
383.16
735.81
863.26
434.92
711.05
1578.40
1353.11
891.48
615.62
365.78
1228.32
2118.22
1980.53
902.64
340.84
142.77
656.18
1499.68
1850.91
1963.78
1154.06
314.23
364.97
495.31
554.70
325.38
547.42
1031.84
683.27
503.94
338.98
214.64
154.80
246.85
275.45
248.91
171.84
844.39
882.41
822.31
178.76
301.60
191.70
340.26
397.81
536.82
615.94
776.89
801.57
629.53
430.97
326.83
428.35
373.11
288.41
489.52
768.12
696.10
510.60
454.58
211.34
321.03
341.16
298.05
304.74
1899.77
799.27
709.12
469.35
332.54
346.99
307.44
352.10
198.66
528.93
1036.33
1254.55
1102.69
483.21
93.76
365.82
594.71
907.45
994.94
927.53
690.11
282.63
584.04
425.00
1394.77
413.62
348.65
308.60
369.96
621.41
1697.18
1607.14
427.04
435.78
461.34
383.80
2089.64
419.63
524.66
941.43
891.11
608.75
705.28
774.07
1011.35
694.77
469.79
507.47
417.53
307.04
163.35
454.44
571.39
511.79
261.70
230.66
270.39
55.87
450.26
467.92
2084.96
325.72
529.84
308.12
488.42
452.52
179.88
388.17
149.79
479.44
346.50
465.05
577.92
979.06
667.72
424.99
398.03
461.01
530.76
403.68
269.07
199.34
243.66
557.78
820.58
1233.06
79.17
125.05
367.07
298.07
835.51
469.70
334.57
542.02
826.85
1002.67
1015.75
1317.69
275.51
280.79
640.46
588.28
599.67
241.80
98.69
235.64
498.69
844.98
808.03
1461.89
1030.02
1542.76
1357.52
631.54
301.37
578.27
834.00
1048.64
232.67
564.30
2168.34
1057.72
1171.10
1160.58
1123.15
413.30
706.34
761.48
863.72
1037.76
993.67
913.48
651.58
264.92
508.23
318.04
337.09
1147.47
1476.69
890.47
218.38
807.70
1096.01
1692.42
423.34
374.73
478.33
583.82
776.63
475.85
513.95
1212.22
1443.03
1645.32
1337.02
1189.88
464.69
328.99
372.50
366.60
427.73
959.77
1435.62
1030.25
220.25
619.13
519.41
1006.61
1051.79
554.56
370.18
416.64
406.70
444.85
572.46
670.32
902.41
845.46
563.50
589.63
1399.83
1139.55
508.96
293.54
351.89
254.87
339.08
678.37
1495.49
1031.60
567.95
311.92
424.39
319.05
538.69
884.55
1184.08
667.57
368.12
365.05
227.70
386.63
704.10
458.23
247.26
290.42
14.72
305.27
265.51
387.51
401.22
344.06
1342.02
2126.06
2164.60
2111.83
1212.03
306.68
420.80
188.71
344.25
362.95
539.39
230.86
194.60
286.40
599.16
1894.76
505.39
435.45
185.29
409.75
789.08
1453.34
1756.49
1218.83
267.58
785.55
970.64
1006.59
709.95
681.21
491.74
469.84
334.28
461.91
369.38
405.83
470.40
866.93
875.41
1033.45
297.14
413.68
629.36
223.44
534.49
793.13
433.32
480.87
1097.86
1390.94
1169.80
1122.03
368.06
190.24
198.80
194.18
549.93
303.46
412.10
384.95
198.47
458.56
787.36
1842.46
925.73
378.20
246.85
692.04
814.83
929.11
1093.13
388.35
630.40
728.19
715.59
1228.12
570.00
214.87
386.30
304.90
487.10
330.40
398.58
361.51
225.77
597.36
839.61
2507.64
249.67
406.22
647.04
852.81
877.34
593.62
698.81
1205.75
1577.73
747.98
343.68
1460.81
1142.82
213.27
372.80
417.66
398.00
152.54
144.85
470.52
694.88
330.19
197.04
667.32
219.32
364.50
445.75
906.40
1041.57
1027.41
747.68
1104.69
893.62
580.04
201.08
436.76
715.43
840.53
810.50
295.05
