733.04
564.60
446.39
558.67
756.30
521.99
861.12
605.48
870.79
713.96
731.53
886.84
1047.27
1917.43
1006.01
685.07
1016.38
687.01
478.75
595.17
480.27
947.49
845.77
899.96
821.21
957.77
1160.75
694.94
811.63
968.25
1082.39
1094.94
1136.70
909.24
686.92
958.42
829.61
816.52
805.88
786.61
927.32
516.75
788.55
951.87
924.13
952.96
986.64
872.32
962.90
975.59
838.60
840.85
986.40
685.05
651.07
454.95
570.04
498.58
1109.38
918.00
875.00
740.73
854.97
1855.89
991.98
835.70
788.16
838.59
969.25
1104.75
986.76
1127.95
611.74
646.50
508.18
2520.24
774.44
650.46
705.61
755.47
1060.44
828.80
890.89
827.30
576.17
884.23
523.71
292.52
1221.92
573.18
733.09
824.90
662.01
793.98
632.11
929.16
1245.48
1174.09
1250.11
943.34
2876.99
354.04
689.33
754.98
721.47
290.03
680.85
675.50
680.67
628.44
886.92
991.73
1250.21
1290.39
1059.72
860.98
872.46
544.00
684.76
575.92
650.08
399.24
975.79
685.43
660.03
1483.99
888.39
830.44
895.63
903.85
786.76
822.79
814.71
869.94
616.61
926.71
495.96
422.80
658.75
886.54
675.69
665.35
808.89
899.76
705.52
714.43
758.45
816.17
910.79
873.74
1840.74
1036.52
1011.62
954.24
1009.57
790.66
882.87
803.25
1297.08
1235.72
1472.86
1219.11
2811.69
1116.38
1072.93
847.17
1115.68
666.53
648.73
617.58
675.61
742.68
492.95
725.14
2882.70
1066.49
853.66
821.22
745.48
924.01
1037.76
979.92
1025.81
1157.26
814.12
682.97
1184.76
803.23
850.81
703.52
729.06
789.52
964.05
914.01
961.86
675.48
751.13
767.58
908.02
1803.06
956.74
329.26
454.44
597.08
356.76
276.78
618.35
418.14
908.87
755.98
924.79
751.54
925.22
668.11
897.80
865.96
944.04
685.90
728.43
718.34
1064.74
802.45
944.18
668.90
1599.41
781.41
890.41
705.37
593.98
745.96
811.33
784.34
808.67
772.24
633.73
204.18
593.22
953.44
600.88
586.81
929.69
710.86
910.30
787.62
873.19
717.76
791.25
677.18
797.52
904.06
1167.29
530.14
484.64
304.94
490.97
731.97
840.16
736.18
1176.06
1290.38
1106.47
788.86
1237.58
836.96
982.22
901.25
902.76
807.65
441.68
654.20
589.63
558.08
943.35
944.17
1680.75
526.08
932.69
725.71
613.17
808.63
760.41
996.03
960.38
945.51
888.61
781.79
667.58
1107.62
732.28
561.70
949.74
1217.93
1532.18
1464.31
972.43
777.96
960.92
920.73
907.99
1514.47
1087.16
450.78
509.67
635.13
881.84
501.00
820.87
541.67
845.53
783.80
885.26
3424.42
888.32
848.32
937.89
851.90
929.35
598.52
699.84
719.85
1091.71
693.83
680.97
747.18
949.97
763.06
775.06
840.54
806.51
851.64
1015.14
893.45
981.15
1028.75
630.33
381.02
628.00
526.45
695.08
446.05
710.56
647.82
830.11
859.14
641.70
682.65
730.58
829.96
711.65
3438.28
929.67
676.47
690.66
487.90
473.78
826.26
607.65
657.96
791.05
611.73
692.61
593.37
1452.34
905.31
839.65
768.73
945.47
780.52
615.32
720.73
402.55
680.31
765.98
626.68
651.62
848.12
772.64
824.14
965.47
1046.79
1217.24
977.47
942.11
821.51
745.09
558.51
1225.70
1921.15
1493.10
926.23
581.52
489.90
782.74
801.47
465.66
735.43
840.59
832.43
944.97
2006.27
975.37
456.78
385.79
605.98
654.87
447.27
487.52
614.42
804.60
1056.76
869.09
735.69
901.92
947.37
808.83
778.90
991.29
754.39
746.58
741.85
745.06
668.64
698.61
659.57
621.24
856.09
958.08
927.48
907.20
981.25
909.22
880.35
874.41
748.93
588.40
790.61
732.67
3057.92
837.81
424.31
464.00
467.54
781.96
794.80
589.96
663.73
708.75
819.40
1152.21
1185.82
1469.61
969.98
817.70
779.28
746.87
1031.86
1037.34
735.37
1074.26
948.27
872.12
616.22
1318.83
757.64
1010.31
850.35
1033.57
669.68
521.71
361.15
579.73
609.46
761.59
958.21
743.12
1104.78
733.30
651.93
567.73
747.81
770.19
892.64
901.72
1035.37
836.31
489.36
798.03
2054.74
940.36
561.28
714.18
748.31
823.68
913.29
618.87
858.20
859.29
822.19
885.31
900.81
1222.12
590.62
676.72
514.80
940.95
403.08
417.42
684.46
623.78
773.28
771.64
644.96
1570.94
1023.19
1101.48
858.22
1024.14
855.41
900.77
1162.06
743.41
645.75
988.96
930.87
980.64
1208.32
1190.19
674.61
691.52
830.52
878.51
985.14
856.56
900.86
792.12
442.98
648.75
1326.18
515.48
465.81
981.83
820.11
832.74
896.39
812.85
900.69
817.08
830.73
924.60
1057.14
1255.28
760.80
1019.17
1307.12
1058.89
1048.48
786.46
570.65
824.51
779.40
820.24
811.76
1100.67
880.13
973.81
959.53
875.42
696.26
567.92
700.62
750.09
605.47
480.53
416.59
1457.35
1128.63
1052.50
798.02
929.35
936.45
861.88
817.98
858.77
883.83
814.42
660.61
752.56
654.72
764.48
636.02
801.84
669.11
1016.75
970.75
826.39
817.80
1000.04
887.33
1078.01
3111.57
1201.03
595.12
406.87
480.55
790.71
357.81
728.85
708.96
651.86
817.63
803.27
747.75
1363.91
1264.11
1393.46
1210.77
973.40
826.82
735.46
773.22
842.27
591.02
414.56
380.74
769.92
1058.88
1148.48
990.75
916.29
1011.29
838.76
830.98
889.89
879.38
412.15
452.07
2808.04
392.32
449.86
663.26
944.60
396.96
879.54
812.29
937.76
760.87
930.63
762.49
911.67
1065.71
1106.48
896.65
863.82
331.38
785.42
817.32
660.77
514.84
872.23
791.37
911.89
3294.64
945.69
967.40
1142.07
938.37
1119.22
790.44
743.44
534.89
728.29
797.94
681.12
859.00
660.83
824.77
755.53
807.80
834.04
955.09
1089.79
945.99
1089.04
1056.28
762.86
399.30
1206.38
741.07
792.94
570.62
867.89
651.45
1125.62
1027.41
905.31
992.74
1237.33
909.85
1486.65
1025.97
890.80
590.14
528.96
562.42
411.61
393.41
756.09
781.41
1063.39
1091.55
851.57
683.90
1030.67
1077.65
1187.01
1001.46
1194.51
901.64
731.63
470.97
868.66
954.09
1294.27
1280.03
929.54
1016.59
737.14
1019.30
857.60
959.94
901.67
849.32
909.11
935.16
399.19
1223.89
723.69
580.46
865.30
463.09
644.51
630.48
688.91
816.35
933.44
902.84
1054.79
1010.91
997.26
1089.90
931.89
652.24
541.34
569.66
888.35
676.66
818.71
694.03
1113.00
823.01
2901.26
904.69
865.31
877.86
838.89
825.08
906.49
687.46
318.07
375.71
538.12
536.92
556.39
663.57
662.77
902.71
732.40
982.29
985.58
910.91
982.73
886.08
857.75
948.01
495.93
594.00
353.01
1089.84
892.00
541.31
738.47
735.75
1087.96
977.84
820.72
752.56
990.82
899.63
1459.93
1140.30
1292.19
1022.79
707.74
610.07
353.58
558.96
456.47
450.02
946.17
906.84
1289.94
627.49
657.63
944.32
1032.87
1199.82
1446.18
1746.44
1857.41
1500.60
1502.89
820.34
515.29
693.08
963.59
955.28
931.01
949.20
896.86
872.67
865.97
803.94
980.62
831.85
2994.25
806.80
754.81
364.29
691.72
465.04
896.53
461.80
807.90
732.00
935.31
723.30
969.82
1493.39
1554.23
1466.67
1577.16
961.88
665.13
510.60
657.09
356.25
607.48
817.35
575.42
960.37
733.85
774.44
1059.40
826.83
983.23
789.43
904.65
902.11
406.89
638.01
395.69
3378.24
926.74
885.02
714.50
825.46
937.94
804.31
889.20
1046.57
965.97
970.41
859.71
856.56
1451.64
792.77
540.27
576.55
570.63
589.89
1251.38
1014.55
1093.49
786.05
644.43
678.88
3054.86
931.49
838.59
922.40
983.58
571.22
785.41
522.85
879.42
874.45
941.15
706.26
791.69
799.82
624.44
656.65
626.01
774.13
893.86
703.11
919.47
686.76
690.26
527.55
983.09
832.27
791.03
630.79
814.62
1048.86
865.21
759.00
678.74
716.56
797.91
780.39
850.91
737.03
3211.09
618.28
841.45
379.06
817.18
677.53
748.23
829.96
802.38
617.50
909.68
828.12
760.43
1507.99
1189.26
766.40
980.90
528.29
539.62
781.49
413.22
266.27
530.89
878.06
757.09
3039.28
1018.78
541.76
829.91
979.55
950.87
804.83
773.62
728.14
785.30
849.32
787.10
511.18
558.89
367.67
585.57
659.55
755.91
720.56
991.30
987.86
736.30
936.46
1057.54
812.53
504.82
526.51
778.66
914.79
602.74
762.87
857.60
931.12
1143.25
746.38
729.72
812.41
966.32
2014.36
1007.83
1010.32
928.40
721.69
514.20
361.43
471.45
424.30
1117.98
683.96
893.63
3466.38
776.81
834.57
926.36
908.72
1180.57
972.72
1026.14
936.49
775.44
472.82
731.52
596.09
1088.28
843.35
692.42
946.40
963.64
926.38
726.25
844.91
1166.38
1178.78
1058.27
956.50
1444.53
628.58
612.75
389.62
478.36
465.64
877.00
424.84
878.73
562.43
631.34
684.82
922.81
987.50
1068.04
1101.59
1026.71
852.37
853.60
357.66
698.73
318.25
429.94
629.59
633.23
1093.19
792.43
539.68
1036.93
905.84
949.77
1042.15
1013.62
1106.05
510.41
389.66
640.55
1715.25
808.02
935.99
607.47
806.70
909.29
577.17
639.16
843.11
1122.17
1132.56
1311.72
1200.39
916.02
770.31
812.92
880.65
943.99
350.10
1063.09
741.71
711.43
700.84
743.35
634.42
980.58
940.68
916.56
902.44
808.40
780.59
985.92
800.29
400.40
432.60
600.80
581.74
891.04
794.28
812.16
847.85
997.95
903.32
742.31
810.47
856.43
1006.26
619.79
770.05
714.30
2810.04
1270.39
784.59
918.86
1132.26
1042.36
911.14
923.98
1147.79
1141.47
1032.44
1146.16
1732.37
536.19
418.42
812.31
715.36
838.52
482.82
889.79
601.64
610.50
994.82
1407.40
3280.29
1930.07
1212.16
828.51
1626.48
2463.65
2440.74
1791.40
1074.31
416.50
309.89
711.77
1172.80
1353.98
1380.05
1477.51
1063.13
1121.36
790.34
729.04
846.92
1020.16
1082.56
3220.49
448.80
325.70
339.47
500.30
653.84
881.03
1077.86
735.36
626.98
655.49
738.74
932.60
897.55
998.61
669.59
720.78
683.68
574.33
363.68
708.51
577.25
794.25
894.20
1174.94
3009.74
740.80
834.94
809.19
903.35
1018.10
959.67
1062.39
508.70
576.16
994.78
598.40
576.98
1063.41
849.82
994.86
772.61
739.37
852.55
1071.47
975.42
851.75
727.47
782.41
901.75
3050.82
612.30
594.10
520.04
692.90
565.57
702.41
1106.07
856.05
708.88
524.78
769.19
787.22
817.58
641.45
970.71
825.57
776.79
757.57
350.86
696.35
786.02
875.44
541.61
805.98
870.37
850.49
771.09
905.88
773.70
834.56
898.19
1015.44
664.01
863.30
1054.11
916.21
980.40
2943.17
757.79
1242.67
967.74
1138.86
582.74
902.03
1011.54
883.57
892.18
1093.46
828.04
2829.93
741.75
540.04
466.47
1093.95
984.17
746.11
695.74
940.31
943.47
754.41
708.23
772.29
923.18
849.31
992.62
691.79
820.78
1091.82
733.09
1156.77
534.98
646.79
479.73
700.96
1263.19
713.27
761.21
967.40
989.60
1045.62
838.62
892.35
696.48
502.92
650.38
684.00
338.67
809.87
538.32
490.21
643.05
819.37
721.74
859.84
789.18
1069.62
900.05
960.60
924.29
2948.48
812.12
920.09
329.75
500.24
620.59
559.89
635.93
1001.73
784.96
958.11
978.99
1051.78
1470.39
1456.92
1889.18
1766.87
1185.00
744.63
850.27
1524.53
2008.19
1722.69
1476.00
3678.22
788.97
691.83
920.18
1197.79
842.87
873.29
711.44
990.22
530.76
780.50
584.23
2890.06
1301.23
1051.48
893.88
1156.25
907.78
988.80
764.92
757.55
702.41
999.89
683.73
896.20
1069.35
685.53
673.80
479.52
385.95
711.24
654.16
749.30
693.57
872.12
781.52
791.70
2000.78
946.53
839.46
1023.92
1118.84
898.32
602.25
794.62
511.80
655.54
404.17
944.79
632.70
854.21
747.73
776.14
836.13
835.85
752.64
1073.47
949.33
1022.02
598.43
616.61
604.67
2976.86
576.95
517.62
727.96
964.56
798.85
919.80
594.02
802.79
819.29
913.59
842.30
1065.72
1304.77
695.37
661.58
757.64
720.29
938.93
768.83
964.77
925.95
1134.66
841.22
858.71
3008.54
887.06
761.54
891.95
824.86
832.01
537.03
359.54
501.95
405.19
440.90
444.03
482.82
1449.35
735.36
755.03
690.83
756.73
803.91
930.32
880.36
1021.96
571.29
732.04
815.66
903.95
994.34
734.87
722.75
1092.38
1182.91
1136.42
948.93
990.80
907.43
1058.55
889.06
762.75
965.40
690.05
1147.65
741.55
966.40
595.60
1033.21
710.95
612.38
813.51
752.09
832.27
2109.96
1075.65
1113.78
1295.86
1191.99
1371.65
1114.28
1159.85
1146.27
729.51
692.31
3246.55
658.22
901.67
1058.79
871.04
951.01
819.47
945.52
1013.67
993.05
1167.36
619.30
756.13
510.53
706.03
883.46
718.22
865.29
737.15
813.29
859.19
711.45
924.07
913.69
832.33
2979.73
937.69
955.38
1097.45
888.96
905.13
731.01
1187.16
689.32
711.70
902.62
1085.54
1043.41
1191.29
1194.21
1103.12
915.65
857.43
910.85
809.87
495.10
567.01
923.91
647.56
3018.84
956.43
278.99
965.00
755.76
713.36
719.28
768.54
728.40
771.55
798.98
1193.66
981.05
1476.70
1356.22
685.58
735.92
587.69
335.56
704.43
762.73
973.13
660.90
1029.17
812.44
2932.60
760.94
868.81
744.54
518.60
290.45
437.86
644.70
517.91
424.07
686.49
697.69
879.22
857.73
843.00
995.96
795.99
909.37
1012.36
945.11
715.56
470.60
442.85
650.85
490.17
821.35
931.04
667.07
905.45
660.32
835.53
769.45
976.26
868.62
957.02
811.10
764.78
693.15
2801.65
634.78
977.28
1072.35
1279.86
888.61
680.73
771.66
938.72
681.17
677.23
916.19
1126.51
925.61
1079.37
1091.95
1300.42
1174.21
858.12
656.45
842.35
906.26
613.69
773.84
3250.79
704.86
646.05
795.66
936.13
1006.38
1120.45
1091.31
855.39
717.57
1000.03
751.26
568.99
605.47
665.80
464.12
821.53
799.60
824.75
791.59
1039.52
1006.94
1127.31
971.73
783.68
1839.39
493.01
644.83
740.56
382.33
448.60
946.12
654.67
842.51
851.82
656.39
922.57
765.99
1142.97
947.00
996.83
875.17
725.23
660.36
434.24
235.95
772.58
703.76
1036.49
692.11
2949.00
873.77
933.80
1130.10
966.75
840.50
963.20
1003.67
1019.31
932.25
927.27
907.76
818.98
748.77
714.99
425.46
1030.34
861.56
796.48
1027.04
1266.31
1188.57
1114.55
1230.10
973.08
1153.83
626.11
407.00
508.82
489.43
879.43
686.59
593.92
1060.44
844.89
816.05
889.81
2205.25
963.64
886.83
850.36
1010.23
872.38
689.28
816.84
534.01
553.85
260.92
583.84
723.52
1295.14
873.97
768.02
1034.13
881.42
812.66
893.31
891.23
849.54
546.75
606.03
399.33
3096.38
606.49
781.99
812.81
834.33
912.12
880.48
739.10
888.74
851.71
1062.53
1326.50
1331.33
1184.31
663.04
271.92
645.79
549.10
531.31
638.66
527.80
866.62
744.25
731.34
964.94
1074.35
1038.08
871.15
1059.81
917.36
449.44
497.71
660.15
887.28
685.12
622.09
568.16
3283.05
755.40
741.46
819.76
811.72
1052.16
909.88
1269.78
1033.89
1180.40
873.96
901.15
2063.90
915.77
791.78
791.98
348.89
854.05
728.90
1002.10
743.28
1075.81
1034.00
1020.12
1135.08
1039.76
777.38
841.77
851.18
747.62
1028.93
769.53
719.33
711.10
1088.20
1028.63
747.24
1067.72
696.38
1004.40
1049.37
1311.18
1281.07
1089.67
730.81
501.42
323.77
617.27
798.98
960.39
614.16
955.22
991.71
986.24
1004.92
911.40
837.22
859.92
1030.05
742.73
477.70
710.71
881.63
1103.08
582.63
999.06
831.83
966.06
787.21
715.92
822.71
718.86
987.63
821.14
2330.82
949.53
742.04
960.71
718.33
726.23
709.69
746.09
485.35
639.09
1072.30
966.16
815.20
1096.18
874.51
1168.88
1110.61
896.12
938.37
699.04
563.71
852.92
688.56
583.29
948.69
1132.90
796.84
875.71
891.26
691.69
729.19
856.14
771.36
855.52
848.64
912.13
783.53
855.87
746.31
583.64
725.85
511.45
682.42
964.99
808.86
870.74
844.90
1065.32
996.36
1040.86
2136.72
1040.53
525.96
449.36
573.28
614.79
479.03
687.04
630.91
565.21
698.41
804.34
750.91
1353.14
1234.20
1260.77
873.62
1131.76
1242.54
1259.34
1053.33
1210.61
958.69
832.42
1587.20
948.75
913.55
846.64
870.12
727.80
845.34
1004.75
1051.16
726.12
933.92
919.56
588.09
737.72
539.80
596.36
503.92
551.60
602.88
795.92
738.32
859.14
855.74
1080.13
1037.17
1344.64
1131.00
1072.35
888.73
734.76
319.84
668.78
334.58
796.17
624.10
481.34
863.34
817.85
742.49
849.45
1015.40
849.34
889.67
971.75
992.50
572.96
546.02
472.02
458.88
599.37
2512.69
1338.24
1263.23
1881.03
1864.21
2055.37
1933.15
1480.77
1001.14
1141.45
1473.74
1438.08
1281.97
1080.75
606.54
637.55
1105.33
1023.03
855.50
1370.70
1226.44
1397.71
788.84
1169.60
1028.09
1233.08
1003.26
924.50
608.98
657.56
661.32
593.84
532.33
956.12
926.16
752.58
1032.48
865.45
1022.61
1113.87
907.06
815.95
881.86
827.92
895.57
667.05
557.26
2837.84
702.24
913.15
735.96
1001.83
1062.58
1165.69
1019.00
908.69
1210.98
1131.40
705.33
941.41
1005.21
884.80
677.91
450.47
216.79
407.91
684.53
788.69
526.11
640.70
645.42
678.69
2072.73
1034.34
911.26
1159.14
1036.98
1484.56
1660.72
1732.96
799.12
724.77
1043.55
1325.49
1641.48
714.68
816.03
926.88
665.52
1082.34
1037.21
1373.10
1344.14
1494.34
1014.01
703.62
805.76
912.60
886.67
1082.24
840.24
628.51
694.56
774.78
1170.54
987.42
923.34
833.03
1901.84
969.83
877.00
973.40
558.73
514.11
622.33
803.63
401.55
401.13
526.37
987.09
848.82
1081.00
875.50
1038.76
845.80
1205.39
1038.26
1120.27
1423.00
1380.50
1061.60
1561.48
2870.76
1188.52
779.94
550.05
1081.72
1117.51
952.67
908.30
907.23
796.98
882.23
1017.26
1947.01
1902.89
2357.42
1953.81
1034.67
933.95
888.31
558.87
761.11
775.89
993.48
1218.12
2161.58
977.04
1016.21
1025.13
931.75
1001.62
499.46
965.50
1436.43
1630.83
1443.78
597.65
1547.43
828.69
965.97
1402.76
1612.42
1919.49
1522.47
1387.00
1017.45
972.21
723.19
655.80
723.82
904.20
590.70
1052.58
713.15
702.23
876.05
1020.20
769.34
829.22
935.05
1093.56
1620.26
925.90
1102.87
931.82
1243.19
3105.62
3453.31
2655.13
1039.14
1177.27
2855.55
4252.00
2961.94
2591.95
1416.85
753.75
913.10
1008.66
972.44
946.32
343.82
608.17
399.88
598.41
543.50
1026.88
863.41
1127.83
1434.96
1209.83
873.19
882.58
946.33
859.96
946.24
1274.98
809.58
849.02
1077.59
627.08
746.37
629.72
940.19
621.46
1004.96
801.76
653.67
3017.85
1394.61
1433.38
1281.79
1496.05
1495.74
1567.45
1201.07
1506.70
1740.67
1509.86
2707.45
928.90
944.68
962.39
921.18
728.31
742.73
879.95
911.97
1037.25
1043.93
1149.21
3026.12
894.78
846.83
502.52
794.78
663.38
572.16
1024.28
1019.97
781.37
709.13
951.99
930.04
1156.80
974.14
1029.89
711.61
530.42
350.63
620.91
385.65
840.78
673.24
790.96
1014.87
2707.72
1005.63
1162.65
1260.21
1463.98
1803.61
2278.20
2060.55
1507.42
388.47
1251.77
1531.99
1119.41
1255.51
796.07
655.11
944.17
619.84
768.87
842.85
781.70
841.99
1003.97
1145.40
1172.48
426.10
438.09
664.25
877.65
514.36
809.37
786.89
889.99
1107.46
1650.00
1298.05
2017.38
1774.57
1175.28
1151.63
1577.03
2182.02
1441.46
1082.14
702.24
364.89
649.04
722.42
630.09
891.70
748.72
736.38
912.02
946.77
1037.69
945.68
1109.19
852.92
927.93
1395.08
2016.27
2346.82
2002.56
1497.06
861.31
1102.01
1049.13
1024.30
846.38
847.50
832.25
982.19
871.53
937.95
1059.24
792.14
1328.72
1358.06
962.79
812.05
819.21
687.59
920.60
2153.97
1068.14
1000.20
900.10
823.17
930.00
1062.75
1495.60
1527.89
1239.36
654.87
429.56
1933.87
951.42
825.09
544.07
1202.68
1320.58
1248.65
1035.08
940.11
876.96
911.65
1149.75
2415.49
2610.89
2143.30
897.97
1271.19
2587.37
2784.37
2437.48
2062.04
1137.61
760.42
3266.03
902.54
1019.59
1104.41
960.11
983.08
949.92
712.24
916.70
662.72
897.51
935.11
2571.68
848.11
1168.78
974.21
1244.61
830.19
1016.59
947.75
995.71
1144.19
1140.08
739.01
3367.88
192.79
581.98
370.86
467.80
623.97
563.10
955.94
1103.58
1032.45
965.89
901.43
680.50
1113.07
1451.61
1423.49
1164.55
485.43
516.11
858.70
637.40
958.59
743.95
751.54
742.62
660.87
613.05
679.65
886.20
773.90
1002.37
954.17
902.49
416.80
743.96
605.69
610.90
2220.32
675.47
477.81
685.60
709.20
916.60
616.75
1034.04
961.88
1013.01
856.23
920.61
710.23
1458.96
396.12
855.80
940.59
896.97
957.30
965.48
990.84
993.80
777.32
794.86
925.90
990.52
1049.25
1017.25
1052.89
885.09
520.43
966.50
691.60
997.59
451.06
575.36
683.62
1021.41
2717.20
831.30
689.33
863.16
883.47
1028.24
954.66
1131.09
854.01
1066.21
923.36
875.66
857.81
925.85
743.13
900.64
859.38
855.92
722.84
805.09
718.72
922.14
871.17
1075.95
1052.53
3115.04
460.10
467.62
743.16
583.67
658.04
947.70
1363.74
1790.90
1725.64
1510.43
1134.42
3201.77
1456.14
1169.72
888.75
1608.12
2703.72
2775.59
2011.71
804.75
328.09
504.22
2053.84
702.79
916.72
818.60
910.99
846.86
945.71
911.39
968.11
949.91
767.28
1565.42
1604.00
1779.16
962.78
608.57
1132.11
1528.28
1645.34
1148.64
896.91
608.20
856.80
1134.12
1886.07
1201.31
1018.90
948.57
645.05
537.59
428.24
652.74
395.01
821.31
954.84
1116.24
2368.24
909.45
977.26
964.14
797.67
1055.15
1200.14
621.62
575.31
468.73
490.19
595.00
599.84
847.13
907.66
1028.65
873.33
963.02
880.20
854.14
901.13
892.70
795.43
1076.87
496.69
3250.03
457.35
872.92
974.15
911.00
986.64
1245.83
1185.40
1227.85
940.91
1089.43
973.45
1504.53
1078.38
898.73
702.39
583.82
475.67
565.61
445.78
554.25
646.68
541.05
934.52
2628.07
846.83
1089.18
1212.86
1080.89
772.60
837.69
894.28
575.69
830.15
517.42
495.81
2331.33
667.62
945.24
505.32
967.89
898.88
639.65
788.28
886.06
725.19
935.14
818.37
1079.37
1191.80
646.77
670.03
437.22
592.12
800.22
729.26
726.40
665.21
774.68
823.36
932.69
870.84
1089.22
919.68
1060.58
702.81
892.20
245.26
680.29
498.84
748.49
781.91
1102.28
1196.67
1474.43
892.37
715.21
875.28
913.84
921.09
950.34
1009.41
504.49
391.50
470.49
683.80
2260.39
741.92
453.11
544.77
733.76
678.91
758.68
775.01
902.42
916.21
1041.64
983.15
930.87
1092.78
947.39
428.34
651.61
755.01
881.06
915.41
872.35
820.78
1016.31
677.00
934.99
819.85
855.03
937.79
987.95
733.53
536.08
781.07
455.84
367.05
889.23
954.87
1027.08
697.83
2416.41
705.59
937.94
952.33
1167.06
1130.81
897.53
863.51
955.51
578.46
711.38
414.34
538.62
349.81
784.37
454.27
919.19
921.33
729.49
989.48
915.99
944.21
944.68
973.75
1022.16
2059.32
372.97
838.56
626.48
624.33
731.30
543.51
906.02
815.24
700.00
753.44
816.60
949.91
1490.33
693.13
964.03
765.40
735.78
841.47
621.08
277.41
667.44
802.88
583.25
751.91
840.77
832.97
772.28
841.56
839.44
645.65
796.60
755.88
786.51
773.29
746.69
702.63
674.60
2294.77
933.74
347.31
900.46
720.37
810.58
824.68
1086.82
1282.31
1411.43
1086.56
978.35
3370.89
430.67
476.32
683.29
859.01
889.02
562.13
737.02
752.15
850.82
540.11
685.97
768.26
985.31
1065.52
1278.37
1155.66
644.22
690.77
1357.53
1549.61
1497.02
1311.55
526.54
1907.81
1013.03
1231.98
1306.40
1072.71
921.41
921.09
945.50
880.51
723.04
877.91
782.88
1462.02
701.52
923.49
454.01
491.76
821.04
987.23
1013.62
1043.30
1361.19
1145.90
1039.45
2712.55
928.59
425.97
647.78
630.25
567.23
1187.17
1071.43
549.92
920.11
694.98
933.71
2352.87
1015.32
849.78
853.13
843.51
804.19
902.63
738.47
748.69
939.46
850.77
857.96
1050.76
1413.29
1212.82
1189.63
970.22
984.65
968.29
874.12
865.82
929.13
883.27
643.82
465.58
1060.76
347.67
413.58
405.33
1077.28
656.54
901.16
977.18
611.28
669.61
893.68
852.59
2351.13
982.95
912.87
694.56
708.60
548.87
753.73
948.27
877.35
854.25
1026.55
977.61
958.26
1085.59
1034.35
900.71
950.16
1007.21
1032.39
872.48
500.89
180.91
493.36
508.65
691.29
858.18
901.89
926.23
803.76
748.12
844.06
927.34
962.63
924.12
909.85
786.27
577.52
501.11
1961.28
625.47
958.48
352.57
916.32
613.15
1064.64
1070.22
1334.42
1493.66
1476.70
1002.68
3447.05
1178.44
1155.60
609.26
718.01
729.69
476.88
793.80
835.34
617.32
808.54
946.28
3715.30
724.71
836.41
818.63
764.56
888.76
995.92
799.89
772.57
688.72
1158.18
981.49
944.02
683.98
792.68
1018.74
1104.92
976.75
814.74
965.20
868.11
836.90
835.97
1014.64
583.88
1138.62
511.06
470.80
709.76
463.34
1052.92
840.34
1063.89
1117.07
1352.91
1261.42
1277.00
1528.23
1103.88
795.13
1023.37
414.05
508.66
455.76
746.96
676.89
708.98
551.73
931.39
1489.43
942.90
679.67
754.03
877.86
948.54
750.23
910.21
844.02
512.43
360.38
593.46
841.87
622.54
341.77
569.28
826.87
828.19
875.10
697.92
733.93
868.75
850.58
701.59
749.96
2110.44
873.60
856.35
825.57
953.91
921.98
1009.99
1092.50
1212.52
1161.83
1044.83
1117.67
2356.27
864.72
974.70
809.21
915.08
557.39
614.33
368.65
509.21
623.37
568.34
647.30
697.76
870.46
755.98
594.92
755.27
723.31
834.87
913.61
1118.33
1004.89
877.14
809.05
678.62
1798.45
526.24
666.68
795.74
1195.32
1333.18
1308.95
1446.28
1189.23
901.65
863.21
771.90
1430.95
694.48
723.20
1027.32
770.42
903.97
399.06
751.27
478.06
942.86
946.57
703.29
2201.26
867.47
772.65
786.54
1023.62
956.39
534.07
530.51
322.18
660.08
766.73
1087.16
1009.45
1302.23
768.67
959.92
506.82
849.27
913.63
1079.33
912.08
922.45
1037.54
960.32
1268.61
3252.55
846.83
804.17
798.39
673.03
926.89
971.17
894.37
1133.80
764.20
986.35
947.37
2243.78
1151.29
1414.35
1005.16
893.54
592.08
728.59
473.57
664.13
685.06
720.69
674.56
661.33
661.72
843.32
769.30
904.54
867.90
771.48
627.88
630.05
573.52
812.06
792.03
1050.06
1742.70
875.87
692.41
886.14
734.07
836.51
808.78
854.20
961.53
861.95
801.03
633.89
440.23
1401.70
604.49
758.69
413.73
471.09
818.18
837.39
723.18
678.54
921.16
751.09
763.42
1042.74
806.65
894.51
748.93
491.42
673.93
1022.38
1250.89
1460.22
1751.73
2375.59
2214.74
2060.66
1691.06
1494.85
1026.36
724.28
796.63
810.83
478.52
766.33
645.92
599.00
739.96
2223.74
1338.07
1003.30
1033.53
805.42
792.21
1304.07
1839.44
2001.15
1867.39
1738.04
1257.02
901.04
738.34
771.88
296.15
767.96
686.16
820.89
827.68
848.29
749.02
724.85
759.64
3247.56
910.40
1001.68
897.08
997.68
728.89
555.48
676.66
454.33
464.92
1089.64
624.26
1165.74
1387.85
1286.30
1406.15
1467.43
970.07
823.11
944.15
1126.36
865.61
714.07
953.43
2055.31
634.59
814.47
1055.86
863.31
718.24
784.13
656.08
909.68
1060.34
991.56
1018.78
1052.55
1477.28
747.58
646.70
1265.70
1097.53
682.41
544.17
555.55
751.78
774.91
799.82
719.93
1404.71
949.61
918.00
930.04
1004.03
591.18
623.87
1018.50
869.47
868.37
694.15
729.56
570.96
802.88
886.59
742.55
872.03
1406.26
1304.39
1321.93
1007.25
950.23
423.07
726.69
917.36
1100.06
1065.10
600.17
438.18
631.47
716.08
864.83
637.09
885.19
971.05
944.99
1048.32
4250.93
927.09
807.15
816.86
746.11
604.89
673.94
437.59
798.37
759.18
736.88
759.87
1000.32
1221.17
1242.63
1135.26
1174.95
1106.62
1102.09
1000.91
1230.85
762.34
1008.76
1012.00
2207.30
867.89
1167.77
1105.73
805.91
858.16
1163.38
992.29
711.77
881.32
963.91
521.52
2383.43
1434.27
1715.36
1472.63
489.08
698.70
1095.87
1153.58
1061.86
687.00
716.93
769.44
1117.49
835.50
1179.58
1120.33
1132.48
794.86
1039.70
702.13
784.13
771.52
699.67
544.87
1456.52
912.90
638.91
790.15
909.57
751.92
846.26
935.54
1005.07
725.08
964.41
752.32
641.33
297.47
611.35
494.50
853.53
694.68
737.99
755.34
1107.64
899.66
907.79
818.41
1156.91
2009.49
803.02
253.67
694.76
459.47
692.04
766.81
576.73
806.02
738.98
765.12
866.12
1046.03
1278.91
1074.59
991.43
941.96
456.26
390.42
541.26
879.66
552.49
410.11
700.85
1194.32
1683.69
1443.12
1514.71
973.50
1189.86
1408.64
1133.71
1095.64
617.29
592.11
472.67
2117.08
857.88
579.97
699.20
601.27
756.41
1020.29
720.93
688.33
1047.82
968.93
975.64
891.36
1370.01
907.85
834.78
824.62
514.91
325.52
632.77
894.03
834.86
916.67
928.29
680.37
2057.37
906.52
1014.38
846.40
1041.91
921.20
873.50
608.09
652.02
444.21
724.81
280.92
626.48
1199.83
901.35
737.82
996.96
839.87
897.72
829.03
907.12
898.51
859.72
829.77
1136.48
773.09
486.59
828.67
1475.16
1469.06
1837.64
1396.62
1285.76
730.32
853.41
831.06
971.08
2077.21
1644.23
1230.93
1660.11
764.98
1056.75
857.94
1264.89
762.26
855.08
977.21
851.25
635.83
812.20
882.92
900.90
979.51
850.10
1108.57
827.70
715.90
462.57
522.98
677.34
3480.92
787.42
797.58
926.00
790.07
761.78
893.41
1002.82
953.21
1059.99
825.98
1005.47
816.14
1109.99
442.46
594.01
586.50
1103.82
677.67
1055.77
898.93
1058.97
889.41
817.33
916.49
1493.50
961.22
904.93
939.30
429.36
537.52
568.82
454.66
607.57
548.31
537.40
627.87
812.29
764.53
827.60
1126.63
1549.41
1350.52
1532.36
1453.20
1438.77
1098.10
1467.32
1315.65
1896.31
950.52
1149.52
765.56
877.74
817.33
670.19
871.91
922.91
775.38
919.11
1042.22
1488.56
497.82
702.82
709.96
550.82
808.99
778.35
849.34
784.05
875.91
748.99
640.69
968.34
842.03
1048.26
963.05
997.99
722.66
769.48
984.20
1484.26
1144.06
1183.45
1014.23
971.99
956.44
1019.25
814.36
921.58
908.52
1012.25
690.11
839.84
935.13
604.52
594.23
408.65
1655.43
610.25
448.68
690.01
692.88
733.32
848.77
766.96
891.96
1117.80
853.43
872.72
1053.85
1212.98
592.27
944.11
767.97
954.37
393.58
814.56
585.18
972.94
816.62
1196.49
816.43
1489.91
1064.37
890.95
936.67
954.78
617.79
600.76
425.40
857.63
855.54
945.24
1213.40
2303.44
868.69
880.63
697.85
835.66
784.13
1253.51
1502.69
1598.33
1676.05
1603.63
1114.53
1573.28
1158.98
1059.02
893.88
781.09
1112.03
872.40
836.94
619.21
771.55
992.88
901.89
1124.69
1098.76
724.13
392.71
634.85
918.40
1066.88
542.40
692.46
527.68
905.29
667.07
3440.42
685.15
1087.45
894.58
1039.99
895.43
1004.47
831.55
650.38
599.46
768.53
871.11
693.13
612.16
516.50
979.39
1185.83
824.33
928.73
1032.01
1056.90
925.34
1025.41
802.91
723.99
811.53
819.85
428.74
885.54
791.70
1126.76
814.84
888.93
833.38
789.29
930.65
876.88
971.81
966.70
900.51
984.17
732.29
1006.49
698.51
950.57
893.34
705.74
631.72
869.65
803.52
1505.44
691.12
859.89
764.84
788.00
1063.23
873.22
754.57
497.83
354.87
696.46
557.07
910.06
798.65
843.56
754.61
715.80
646.36
754.47
779.04
824.63
827.28
1061.75
879.83
797.84
462.65
1110.77
681.19
838.44
942.82
857.52
1083.89
1046.99
1067.75
974.25
938.77
822.03
699.12
856.16
1070.04
894.74
442.90
448.77
255.55
567.51
682.98
559.53
645.41
792.32
826.98
3586.17
927.88
887.06
1165.35
1178.64
966.17
1299.28
717.98
757.68
643.25
733.74
772.98
3581.15
914.99
758.28
1116.16
1033.98
841.01
1032.19
945.97
1193.75
952.88
791.02
770.62
1388.26
553.11
512.33
1061.52
905.30
885.86
656.13
870.33
768.44
909.58
629.77
847.80
1001.09
1516.14
1024.05
895.18
949.79
729.64
1125.23
1463.39
1205.12
804.26
755.01
619.40
639.11
1530.01
1081.56
728.11
1057.20
910.02
870.51
909.86
1036.62
856.36
583.81
757.60
1042.62
706.03
887.93
686.35
656.58
794.84
780.68
624.40
734.04
671.50
925.30
817.62
998.58
890.84
1385.63
695.97
811.06
500.28
890.09
810.07
829.42
794.33
1250.91
1141.42
1115.93
839.62
784.31
1055.33
993.32
1211.90
973.73
945.37
851.09
445.56
760.24
469.17
866.49
414.33
1027.52
959.88
941.28
768.49
891.44
908.50
924.05
994.13
850.30
803.74
936.29
1075.00
1186.37
1551.75
689.35
959.01
904.09
1127.94
1238.91
836.06
1029.52
860.42
934.69
983.71
1124.00
3973.43
692.94
516.16
832.39
440.79
655.98
526.09
931.57
912.43
799.87
784.06
773.57
879.01
1326.21
1000.72
1159.21
985.17
808.55
414.05
702.03
396.17
533.75
1203.10
875.53
700.33
1552.19
950.19
960.76
898.64
916.93
929.39
909.96
935.85
1162.53
480.61
530.17
473.03
3474.23
567.00
1138.07
968.29
871.09
751.27
977.27
844.54
1069.75
1118.12
1195.95
753.02
3646.12
884.02
670.16
312.28
504.86
631.57
480.15
417.19
500.36
914.17
1057.39
933.27
775.98
801.53
926.35
792.26
860.68
905.42
853.88
559.40
885.92
652.62
803.18
836.86
783.19
3515.56
686.57
749.29
977.01
806.73
771.86
848.44
1059.27
955.70
988.62
590.63
762.20
1105.98
1166.46
919.77
1294.97
1276.73
1454.64
1283.15
1299.37
819.52
625.70
846.94
986.21
2168.80
1007.08
967.91
937.04
504.03
965.60
889.48
1134.39
651.86
904.77
798.25
983.04
988.21
711.10
989.95
1040.88
919.65
860.81
888.43
911.50
392.06
816.24
1377.64
872.82
649.71
3462.54
799.41
1286.72
999.91
1436.76
1175.39
1886.27
1807.64
1659.32
1449.70
1493.98
795.53
568.09
616.85
1216.60
1607.75
1212.88
969.34
589.17
959.76
774.97
901.09
1014.97
3305.70
1055.93
765.37
909.76
766.87
862.92
398.70
910.33
748.73
1083.03
780.96
1015.17
1033.60
1330.22
1230.49
1115.66
999.69
1039.10
1065.96
1053.66
935.10
1166.01
713.87
725.06
3311.59
1006.08
477.27
500.45
571.05
558.33
805.66
957.07
827.11
757.93
691.53
869.16
752.42
1453.94
637.41
731.71
206.14
629.35
421.01
745.00
798.33
856.99
1300.23
1239.68
606.51
3667.38
899.72
824.43
824.66
859.15
974.80
888.41
990.18
741.18
576.06
608.78
581.15
958.90
1017.28
1197.32
689.13
760.59
799.57
836.98
877.42
955.59
876.66
893.22
582.66
627.12
3303.82
602.55
515.55
728.15
659.52
1012.82
970.88
1023.70
692.93
1244.29
909.87
1078.63
921.65
1189.49
724.82
860.96
709.07
926.92
462.05
589.67
855.36
800.56
801.24
783.40
941.14
3286.09
1477.59
1420.42
1066.50
916.29
775.43
521.12
742.93
593.36
621.10
524.28
761.80
3434.25
930.18
1170.34
1367.47
1552.28
1335.26
1287.18
1005.48
1062.53
1019.28
1106.63
760.90
552.30
625.24
498.14
526.46
884.86
661.31
730.99
975.39
883.74
559.45
1069.46
838.38
3284.97
935.16
1213.69
806.11
820.06
846.80
992.51
1073.71
988.60
449.90
940.40
1025.50
1085.88
837.78
1201.68
960.48
1382.18
906.44
1200.49
1040.66
841.67
383.01
723.04
931.17
3788.63
645.26
770.68
734.07
835.57
766.95
565.16
726.45
988.81
750.17
1159.53
987.43
964.55
762.97
654.84
480.55
913.13
586.94
701.64
521.70
734.62
845.00
863.02
532.52
842.66
962.74
1262.03
976.50
1061.05
834.85
724.28
303.16
565.70
713.15
679.61
660.77
682.42
718.48
1499.50
835.05
741.59
748.71
793.37
765.36
868.55
792.96
1415.56
1356.93
1815.99
1508.66
1421.55
1200.44
1095.00
844.01
1374.98
881.76
671.69
829.42
950.11
942.15
897.17
965.73
1232.32
503.08
347.55
605.74
481.21
615.19
717.31
951.92
744.51
1008.04
928.59
759.88
3128.86
1371.75
1604.08
1419.18
1096.49
789.17
543.69
757.88
543.42
458.18
764.74
842.97
3200.85
1329.21
1125.52
924.44
963.95
941.96
829.98
926.83
1100.81
907.35
704.98
393.19
3340.58
362.79
482.55
559.13
916.13
448.15
744.09
732.08
802.27
975.42
950.09
945.23
1103.53
1500.56
1289.75
1262.91
1196.31
1123.56
807.80
634.01
926.24
530.39
789.45
992.12
813.29
699.82
855.82
812.02
797.78
852.90
733.11
668.24
770.34
773.70
400.15
425.96
660.30
2827.61
763.28
1014.33
752.44
573.57
911.73
634.83
1002.79
912.22
807.13
878.72
955.22
774.52
1528.46
1292.09
1073.97
966.92
909.45
953.56
1274.29
1074.15
825.37
660.32
924.38
1010.25
3541.63
938.32
1106.51
453.24
604.36
675.03
595.58
497.49
623.60
520.74
901.61
916.71
943.11
1060.24
1120.91
909.07
1143.44
1073.32
1235.75
857.25
948.81
544.85
608.41
400.55
722.69
981.16
455.70
776.87
917.27
765.39
912.45
805.25
963.01
992.83
1125.43
960.70
514.18
2037.71
293.11
658.88
692.25
725.76
776.95
726.72
978.06
1021.54
1058.17
908.76
1153.19
1021.50
1141.80
1256.73
1099.15
741.76
674.17
766.88
784.55
697.40
501.08
563.77
1068.96
811.30
1137.37
548.55
925.28
814.49
879.86
860.87
809.55
615.82
654.05
339.49
556.27
368.62
1159.72
722.04
676.13
874.01
918.63
1039.37
855.90
762.52
885.12
767.09
873.80
898.04
686.30
619.16
423.23
382.82
637.49
864.07
989.63
645.01
1455.89
1233.47
1116.56
1246.43
1221.80
1164.02
853.74
996.37
1071.65
517.38
542.76
302.93
694.24
439.84
574.98
440.62
768.95
1031.06
699.98
680.82
1030.41
920.58
823.44
1001.29
999.80
948.59
583.87
687.03
786.47
675.30
982.88
971.54
943.56
945.07
926.44
926.92
644.16
684.42
752.08
859.66
1051.49
891.18
3059.46
794.96
626.40
415.23
536.26
544.83
670.48
670.59
949.50
805.34
699.88
746.33
1122.72
1129.25
1089.31
977.58
1213.53
1087.85
883.42
867.64
992.76
915.86
870.18
785.03
997.39
1087.14
980.36
722.82
810.00
856.10
1069.68
1132.22
974.78
722.35
531.75
431.31
470.34
666.78
538.50
574.01
606.86
805.65
956.57
726.19
1181.19
1300.66
1451.66
1445.49
1055.05
1362.20
562.09
467.79
658.70
423.28
722.58
300.59
560.34
711.63
1112.33
749.42
844.71
1412.86
1207.73
1067.02
1151.94
974.30
965.40
483.90
462.49
591.64
498.43
410.17
938.55
1216.43
867.77
641.27
857.05
672.20
709.02
842.69
999.39
1162.03
940.16
819.46
793.44
2968.56
848.97
814.75
1053.14
883.64
899.91
1081.25
925.77
762.16
642.61
744.49
751.95
899.08
1040.02
968.99
545.42
484.73
630.91
587.28
708.47
460.19
1003.56
630.71
896.30
758.19
3046.17
934.89
1070.89
816.74
1091.13
914.39
1000.84
1014.83
818.69
500.34
611.99
904.63
624.47
781.51
1159.66
865.22
1178.70
792.26
830.88
897.84
1200.13
1162.50
1308.10
864.84
673.31
751.19
672.34
875.20
1028.12
1006.19
858.35
792.32
675.16
766.87
879.73
826.89
896.49
2721.91
1207.00
1210.09
1167.55
874.95
944.55
408.31
720.44
547.14
985.34
492.96
954.17
2964.92
774.51
713.48
888.81
966.77
1165.13
1317.23
1704.72
1296.64
884.75
521.05
592.85
2161.45
655.24
782.99
588.78
697.29
855.75
787.27
998.34
794.65
962.18
820.58
1028.94
739.51
686.41
555.33
763.98
916.55
1020.46
662.17
696.81
823.65
765.29
762.10
876.52
887.09
3142.70
942.59
938.34
935.66
710.58
394.98
640.44
453.95
468.41
356.19
645.19
386.90
783.16
1196.51
714.19
661.92
1006.43
877.53
1171.37
1074.19
892.86
671.77
786.65
309.94
669.52
1739.37
1144.59
799.34
1314.12
935.06
1018.56
555.93
856.16
950.01
831.68
675.92
1149.68
3115.17
606.24
752.10
525.69
500.32
510.39
661.15
556.16
820.72
705.93
792.70
847.40
906.58
1380.94
1021.26
932.89
1009.51
888.57
788.24
645.42
743.73
778.47
613.11
974.04
795.28
3011.99
1110.59
981.69
921.75
1329.26
968.40
1099.30
800.74
1041.81
587.41
553.49
644.95
2967.61
389.80
854.13
440.52
752.44
735.29
897.45
684.95
809.25
898.23
885.49
843.01
1017.35
1301.16
701.37
686.19
770.34
675.59
835.39
618.57
762.15
863.81
1070.99
830.07
879.33
2961.40
1053.76
915.85
1021.28
900.80
501.77
576.43
554.96
292.52
364.97
474.22
863.46
402.17
1425.63
727.33
803.05
877.54
764.44
797.52
912.02
908.79
935.10
439.03
629.77
605.30
755.35
1082.20
829.92
802.09
1171.64
781.03
1117.05
867.90
1241.02
971.16
1049.67
924.94
1007.85
897.92
634.84
650.04
871.97
999.97
666.13
829.69
494.49
1014.46
758.52
749.40
818.54
2745.18
925.85
890.06
1031.27
1041.79
860.64
862.23
593.10
830.73
774.85
980.67
913.24
653.97
1578.02
1070.51
788.22
924.36
944.84
912.02
1042.29
983.47
1065.55
872.09
815.93
948.61
703.54
944.85
1057.40
693.59
972.74
703.56
793.66
690.86
740.95
771.69
905.52
723.53
872.05
2952.20
737.04
510.83
716.09
578.09
1023.33
1008.95
927.22
1298.14
1183.77
789.35
870.34
851.74
1097.55
767.66
952.10
1003.98
657.37
442.95
581.16
378.86
567.07
501.55
803.49
735.09
2865.60
703.46
829.04
965.43
1098.42
847.99
799.70
766.57
886.29
481.61
478.57
603.52
528.71
887.22
619.55
942.79
967.89
788.83
1081.08
653.45
992.67
719.64
908.87
989.54
1084.28
2898.36
649.42
797.56
860.65
523.94
685.98
434.21
728.61
1005.97
1034.31
885.37
789.47
735.53
1091.31
807.73
872.86
799.96
711.59
411.35
595.37
419.34
793.85
566.40
901.08
814.57
2846.86
1217.56
1223.16
1084.74
1163.46
844.12
1057.08
812.79
830.46
838.23
500.41
117.83
1187.94
423.04
702.17
480.04
655.56
742.39
814.26
728.78
963.94
943.22
926.91
878.66
966.96
969.25
967.49
729.25
793.26
416.55
735.78
823.36
852.19
1078.22
928.33
829.31
860.17
2650.63
1078.06
775.45
1073.53
1142.51
823.52
596.40
712.55
544.09
570.45
361.96
873.10
540.44
872.90
790.17
859.55
849.35
979.64
796.68
922.74
1034.19
1157.90
883.31
948.49
894.20
2809.33
606.19
568.03
814.41
699.38
810.64
923.49
719.91
870.54
931.85
955.29
978.69
1075.84
1032.93
591.28
305.50
520.68
457.76
502.74
385.53
663.14
787.54
807.57
693.28
816.76
812.74
1188.59
968.25
987.60
949.96
884.50
606.72
949.89
752.16
872.41
563.92
971.07
849.72
2997.20
1083.07
804.86
853.19
777.80
901.18
1046.43
887.72
750.51
455.86
597.47
594.57
919.19
857.87
652.94
816.26
757.91
796.30
833.41
843.43
753.53
864.47
780.98
660.74
745.60
909.42
954.17
800.96
864.82
948.30
616.93
540.64
759.28
1166.76
1020.66
976.23
821.02
820.30
2752.37
914.95
965.67
926.07
752.80
490.24
562.46
543.97
507.47
695.65
731.21
479.98
872.22
1037.32
842.40
820.79
884.68
928.07
1058.09
861.26
848.11
837.39
1062.73
393.37
690.20
2453.43
828.61
899.19
762.43
886.32
933.63
772.52
986.30
836.93
951.21
1206.75
1161.12
1014.02
926.33
680.37
1011.90
483.95
844.84
858.07
608.61
903.79
813.48
885.60
783.08
899.66
2978.14
940.85
983.43
934.09
699.93
603.78
879.79
986.32
784.37
548.74
853.85
519.16
1048.09
1255.17
992.35
754.94
903.40
809.22
900.67
926.53
1022.20
527.95
761.42
445.67
646.80
542.11
923.16
566.02
686.09
776.45
860.03
616.25
903.38
795.61
1044.22
833.46
870.34
661.71
2641.39
780.60
927.21
942.72
1131.73
988.31
1318.88
1296.92
1333.74
792.99
841.94
764.39
2943.65
872.40
880.11
948.85
666.25
440.82
499.00
598.83
509.42
460.17
636.56
485.09
749.87
834.79
871.82
752.66
1161.04
998.83
1094.15
741.17
1081.35
706.33
797.53
924.62
841.76
1386.03
828.40
766.92
1104.26
970.93
1005.97
755.30
1003.13
1121.97
1118.16
953.43
984.52
1126.06
710.21
555.98
479.24
320.72
1005.85
1092.90
717.13
1054.70
792.61
832.91
888.69
1837.44
740.29
739.82
931.61
921.59
694.48
778.53
581.74
392.02
800.26
1061.86
804.68
614.45
1186.41
878.24
887.46
830.49
1156.47
819.08
929.41
896.55
982.16
604.07
527.58
448.02
2802.78
449.13
791.77
664.95
570.27
772.86
890.37
661.18
789.89
916.96
836.58
726.23
1044.63
1089.20
914.40
368.00
901.80
959.14
988.67
808.96
644.43
863.22
798.66
666.26
766.42
2673.31
838.62
769.00
1090.61
960.70
922.18
507.24
729.02
841.90
816.59
541.62
989.62
540.63
1567.63
685.33
834.92
834.42
903.86
927.61
903.67
878.25
1109.38
746.13
704.45
867.40
2743.51
795.52
1147.40
624.08
704.69
733.60
1013.20
669.59
748.27
1015.98
967.16
959.45
939.31
978.29
630.00
544.84
716.80
834.76
1021.71
910.54
795.02
813.62
813.33
761.53
632.10
863.79
960.48
730.38
921.58
907.84
678.20
426.98
962.20
701.81
898.77
941.08
1198.10
1232.37
2810.58
1277.92
922.15
779.05
974.71
980.18
955.79
899.52
1088.80
688.99
721.32
799.62
3021.61
642.64
444.52
799.10
599.97
943.26
895.64
1150.66
1525.11
998.98
1217.00
1160.66
2758.42
994.29
927.94
492.03
612.69
458.23
659.23
504.04
830.95
612.85
914.19
950.45
820.30
929.84
984.78
946.02
839.26
965.95
709.03
372.17
729.19
367.22
776.39
490.36
860.76
2322.07
847.63
875.00
756.49
666.63
951.08
931.61
879.21
890.59
1019.40
765.89
713.47
727.57
1353.43
728.06
794.48
699.77
896.99
731.27
1085.99
731.75
819.60
967.89
901.15
913.36
2805.12
894.07
767.29
479.97
735.08
286.30
674.00
679.42
656.18
625.17
718.73
758.60
781.27
1352.96
914.31
754.74
986.01
805.10
910.47
620.97
771.02
385.70
750.26
787.73
833.57
685.16
987.54
815.59
835.64
864.41
1031.90
936.21
898.50
760.31
997.08
765.78
752.05
520.45
1660.85
684.66
800.53
677.27
593.81
882.43
801.74
736.53
1093.94
1118.13
1043.20
724.19
2560.34
967.50
669.31
615.43
764.58
700.65
746.82
455.38
842.06
1028.86
1139.90
965.74
953.22
909.43
1045.66
931.17
899.62
922.61
683.85
344.20
711.47
753.51
523.82
352.68
696.75
1729.93
841.72
746.44
1093.99
884.89
1078.13
1014.73
1299.03
1126.65
1310.31
624.77
914.51
786.72
883.98
854.21
888.43
555.63
892.64
1157.66
1255.87
805.10
878.55
968.88
925.41
1746.40
910.18
1073.17
920.54
1073.02
856.40
973.29
752.53
737.38
585.75
871.70
885.90
777.75
1062.65
880.00
1104.32
915.41
1054.26
948.12
1261.65
747.07
699.03
687.22
662.06
558.35
1930.47
757.53
1112.01
924.42
864.42
705.90
980.55
888.00
999.69
943.50
755.84
384.40
579.14
477.71
797.81
554.45
627.99
855.89
685.94
554.06
840.94
714.34
848.47
800.90
1050.73
2592.72
1009.25
867.78
1132.99
821.62
1044.13
771.30
819.29
701.78
749.57
1056.82
1059.63
1018.34
1008.57
983.00
963.66
944.55
869.08
1026.33
784.09
344.48
479.00
666.71
601.99
525.26
2372.12
404.12
934.25
974.69
786.23
813.73
956.86
757.49
1029.83
883.32
1147.99
619.97
945.64
1062.18
746.01
648.21
1004.50
812.94
974.43
1063.32
1330.89
811.16
1000.47
879.35
910.87
2610.03
988.40
1006.29
636.11
431.92
547.05
248.01
898.04
582.66
670.75
748.98
894.11
732.76
1206.64
863.41
1081.48
844.21
1197.82
951.97
1003.05
752.40
681.83
490.97
674.61
825.86
2550.60
715.08
960.06
981.30
1189.19
724.56
1145.34
825.92
810.42
842.08
886.42
373.22
719.72
782.66
521.94
472.41
529.53
434.61
445.76
751.19
918.76
719.86
813.01
828.63
1162.73
2449.44
902.40
937.26
875.86
775.54
980.52
667.62
819.01
586.42
804.51
694.51
889.59
816.25
978.48
827.50
992.55
826.38
909.10
893.89
683.38
508.46
548.30
304.91
640.39
436.36
765.45
768.93
750.34
827.01
861.50
741.83
1057.90
829.87
1025.66
915.61
1024.13
666.39
768.48
1130.17
892.34
533.92
1251.72
838.88
1102.52
849.93
974.94
859.79
975.92
885.67
971.68
2371.98
1178.18
967.11
478.84
452.12
894.67
1035.32
827.28
730.89
621.82
758.71
804.07
746.24
998.41
922.17
958.23
715.85
941.26
1051.60
1105.37
790.58
797.77
404.04
842.81
513.52
2368.98
684.33
828.72
860.35
983.43
787.08
982.32
835.53
805.93
929.85
1125.41
657.39
421.59
590.17
591.71
511.19
655.69
482.88
549.09
783.28
832.13
722.30
994.54
807.33
1110.85
853.51
1084.00
861.81
968.87
1201.51
1090.27
917.68
939.02
929.38
660.68
868.16
773.51
755.67
847.09
788.36
943.31
911.84
852.58
869.54
753.14
529.09
481.53
695.84
906.18
556.16
2430.77
544.31
1049.81
849.36
755.75
710.56
1010.02
799.51
1114.32
868.88
1025.10
722.48
722.91
1000.01
858.04
810.77
841.94
839.66
730.34
981.44
1059.85
751.43
821.56
875.17
882.90
774.80
1035.06
931.57
531.69
475.62
773.93
490.64
812.20
994.91
776.13
733.63
710.21
939.31
2465.12
749.74
1004.67
989.40
1051.84
999.71
1003.23
782.09
963.52
900.59
754.28
940.62
925.07
1415.93
1211.65
994.03
1148.30
809.85
970.42
898.68
1054.85
842.90
983.08
523.94
618.63
1962.70
937.99
818.83
721.40
681.70
430.14
1102.07
719.42
724.07
812.53
690.80
957.40
862.98
1065.83
860.09
729.85
511.52
622.74
305.17
651.50
428.40
787.02
1022.65
1514.47
1203.09
1559.44
944.38
838.40
955.54
967.79
879.14
890.22
504.45
682.91
393.26
786.66
596.94
2441.96
511.93
828.91
597.19
682.98
685.35
766.82
747.76
967.65
875.13
862.65
472.84
494.14
856.83
568.59
372.25
934.78
784.03
852.45
1011.22
1102.14
772.48
778.77
814.43
965.74
928.91
998.45
954.21
520.86
409.09
858.68
428.95
618.17
497.82
764.85
688.73
751.52
720.89
2209.14
778.55
963.77
886.65
1084.23
883.48
1065.93
716.41
686.44
634.56
809.40
769.13
945.33
753.23
1221.74
994.96
954.18
767.35
1020.80
865.12
908.32
851.86
862.36
664.95
698.41
2056.43
479.38
579.01
531.93
873.90
575.39
810.44
752.27
618.92
832.76
698.49
1014.82
1033.81
1153.46
828.11
884.55
843.99
898.02
826.33
1042.67
916.83
1032.32
1109.01
1251.59
778.29
1256.03
1067.26
1076.10
938.30
943.03
827.53
940.76
442.12
681.94
745.06
523.15
735.03
1948.39
789.06
990.71
760.72
839.39
714.10
955.74
915.20
1096.97
826.27
1054.02
793.36
1110.67
935.12
1481.92
1295.63
1497.94
836.35
851.38
773.29
947.36
637.42
882.50
790.03
1082.26
1160.19
1225.88
969.17
682.30
1033.83
1339.51
1539.06
1283.82
1038.47
601.92
732.50
1146.90
906.71
672.98
761.36
1058.07
944.38
885.06
928.77
1005.18
592.33
716.07
418.80
2324.42
713.37
865.22
605.87
1093.94
922.40
850.94
756.39
919.47
938.52
1044.65
840.26
1062.72
772.85
672.12
337.06
651.51
349.39
791.61
729.49
802.72
1029.33
939.85
767.23
793.31
2142.63
775.87
902.88
1086.59
907.15
742.24
551.83
730.75
820.33
880.98
836.68
828.54
983.24
1149.10
770.26
876.32
950.32
1116.40
764.78
778.96
986.43
1083.82
575.41
610.66
453.04
1705.64
910.14
718.51
353.44
914.21
858.90
851.73
763.82
890.22
905.45
988.97
948.08
1159.92
1035.09
1176.07
855.98
1219.97
755.40
820.74
673.57
1057.97
1200.38
1300.09
867.59
886.86
973.72
1001.84
834.21
1158.38
840.19
684.87
323.20
760.13
244.41
589.55
479.39
560.58
1126.42
834.07
786.69
756.87
745.77
937.80
914.58
837.96
908.97
989.59
630.57
733.76
726.72
1159.41
423.76
716.59
580.09
891.03
902.81
902.63
685.73
1080.63
962.34
890.72
932.48
1391.21
543.90
526.11
380.11
1011.30
908.01
1152.85
850.68
515.65
777.84
840.81
686.49
2033.01
714.40
965.49
712.84
1064.18
1145.34
1154.66
853.37
781.21
629.18
759.08
900.70
2126.69
902.10
850.68
661.33
682.05
953.57
929.64
786.85
850.55
902.82
980.43
625.32
529.28
1234.36
484.74
638.32
738.11
662.31
820.33
769.32
918.60
829.57
999.66
919.68
1058.74
868.78
1116.18
954.84
1050.17
808.55
1142.76
1080.04
1037.03
778.52
1045.32
1361.60
1355.00
882.15
937.68
708.24
1067.43
1148.54
1299.50
1022.58
866.39
406.98
495.50
565.47
703.79
1086.06
1488.86
1441.11
1230.96
973.14
636.17
857.62
834.00
813.85
903.80
879.69
917.78
695.69
1085.34
419.17
746.42
597.99
950.10
652.96
1238.60
980.77
1096.84
793.31
1229.29
953.26
1207.64
902.39
1002.38
886.73
714.61
465.63
662.13
383.12
700.03
610.32
599.15
918.04
2322.16
828.57
825.72
684.99
799.28
855.33
1195.31
1105.77
1028.74
604.43
697.34
619.26
752.56
550.68
769.58
728.31
913.68
896.75
713.45
822.24
940.87
890.94
933.39
762.07
980.29
1407.24
596.62
547.02
883.46
514.88
854.52
602.77
995.92
675.09
799.05
848.90
1145.91
772.61
1253.19
999.43
1230.85
618.85
494.61
440.84
922.14
681.18
1396.90
1673.84
1696.81
1525.26
1446.03
847.18
895.63
884.26
924.94
902.09
931.96
868.72
600.83
299.97
451.10
894.26
1329.50
648.17
655.40
640.65
907.99
757.22
871.90
854.05
870.57
883.72
966.03
696.04
1164.85
755.96
802.47
643.21
997.20
576.94
585.52
635.59
1247.38
1414.18
1551.44
1267.61
1432.30
1004.68
1214.06
1045.56
948.76
725.85
542.32
968.52
1201.39
1318.43
649.37
625.99
1805.28
692.00
836.64
766.21
823.30
785.41
928.26
716.45
822.88
788.43
678.59
460.27
828.91
881.53
941.00
645.65
740.57
593.88
872.05
699.36
677.93
768.69
1024.15
792.67
807.20
828.04
998.90
688.96
827.13
805.43
630.58
530.65
629.38
815.51
787.26
823.26
885.08
661.35
1935.34
724.25
992.03
972.39
1015.30
713.04
825.93
952.33
881.19
548.20
846.37
648.44
845.18
1433.20
964.61
738.56
894.09
789.68
1044.93
1047.36
959.25
891.64
563.56
723.86
458.22
347.30
749.40
457.82
635.23
509.25
706.45
733.82
734.08
833.26
939.56
962.41
974.36
814.15
1868.12
645.87
765.52
853.44
918.72
953.86
1087.49
775.82
1309.04
1207.85
1183.40
907.71
1824.86
1008.04
915.41
970.27
1005.29
777.65
663.78
523.67
658.15
447.73
642.80
920.99
648.87
925.92
1490.73
1400.56
1503.83
1031.23
1171.81
835.67
1001.79
960.20
703.25
542.22
900.45
569.89
1148.25
687.94
648.92
767.10
983.40
726.14
816.69
938.32
1132.93
984.68
1009.30
2053.58
933.73
494.09
482.36
794.12
875.84
564.62
1556.58
1741.91
1409.55
1186.55
1145.86
1622.29
849.14
843.02
980.18
844.57
890.19
830.83
459.18
878.29
502.18
393.63
395.91
3567.59
644.39
948.46
1353.69
1024.19
1009.95
882.00
911.75
800.08
1032.98
1024.02
593.44
542.48
841.21
332.69
553.61
516.10
618.95
452.23
704.46
822.41
800.16
789.46
886.56
837.17
1004.85
1022.28
920.95
725.49
1062.71
497.24
603.15
715.93
834.40
615.07
1135.62
1115.12
1163.13
1066.13
1135.24
926.45
935.15
862.95
939.76
684.32
734.11
962.40
485.88
523.74
532.10
1061.02
581.82
966.92
726.55
734.40
937.26
850.40
942.69
812.36
1094.48
1004.05
966.31
3312.88
962.14
389.89
646.89
600.42
710.21
722.08
929.45
831.37
803.27
729.44
1193.99
1236.37
1390.81
985.22
1036.47
631.05
738.92
503.34
546.84
356.57
535.95
586.14
828.94
872.25
1937.50
679.84
961.78
927.47
849.84
966.74
995.53
692.81
718.51
621.39
673.36
248.85
835.86
1319.68
1010.46
1033.49
1125.25
932.83
1031.61
914.66
892.56
871.93
1026.35
849.60
508.90
1620.92
666.47
407.91
599.86
464.17
633.40
453.97
951.27
871.31
752.81
643.49
922.60
801.72
1478.67
1186.68
1096.93
788.24
993.03
542.85
1018.88
912.82
1174.38
1055.97
1594.67
1142.46
1338.72
871.95
1090.68
862.45
1007.02
749.72
926.13
694.97
984.95
303.74
847.41
601.40
923.00
900.14
520.97
586.50
813.76
750.87
619.84
847.34
796.93
966.19
961.39
728.78
683.66
574.72
375.93
425.81
667.95
633.57
905.63
656.78
1175.87
856.76
837.48
669.65
919.29
2256.81
977.93
877.54
1118.90
1114.70
1288.50
1070.69
1140.45
1313.52
911.44
498.73
862.19
990.57
925.02
1218.20
1428.26
1097.08
958.40
766.15
1034.11
886.71
632.82
487.12
645.64
1223.54
834.05
783.08
658.77
998.21
883.18
822.01
664.12
960.30
1024.20
835.63
850.05
883.52
603.53
825.21
792.13
582.31
584.65
397.99
645.09
516.87
725.75
832.68
687.24
683.83
1375.52
987.22
1037.83
779.86
1058.26
497.85
836.31
1058.10
813.32
759.55
902.11
661.84
1336.94
825.98
756.72
513.25
1021.72
804.85
958.79
1081.90
1062.04
820.43
660.91
411.31
969.30
1172.64
719.06
417.71
718.31
912.97
799.19
752.11
810.00
764.39
848.73
910.34
815.90
943.44
888.50
924.19
666.32
716.10
754.02
839.46
763.93
717.05
924.28
699.92
676.35
702.48
1600.17
950.91
866.36
895.07
913.73
336.85
524.23
424.03
480.82
721.92
653.92
525.06
671.52
1192.76
808.52
854.98
1116.48
946.78
1045.40
1027.58
1093.14
802.22
970.74
1096.49
762.46
1142.46
1066.48
859.11
852.04
937.05
1119.07
812.22
908.12
885.04
906.36
796.30
878.36
3652.19
793.60
397.99
731.50
627.19
710.75
434.10
655.40
642.86
744.33
895.86
808.27
731.14
1419.91
847.08
1021.67
878.18
996.12
470.53
807.46
877.09
574.53
598.48
747.93
549.50
912.46
1050.11
988.06
658.26
897.41
726.71
934.41
852.50
931.92
763.22
523.84
357.06
656.08
2090.52
722.62
569.36
526.42
824.89
855.82
807.92
1031.82
851.10
885.45
1230.21
1538.42
1099.28
824.96
714.27
1466.41
1375.81
1374.67
996.33
1075.82
909.92
1274.12
1041.38
685.49
1877.60
830.57
826.57
803.43
817.13
899.79
641.48
640.52
362.44
425.08
508.55
686.51
447.28
784.46
881.05
881.36
605.18
992.21
693.92
879.28
783.44
1039.55
1018.29
902.62
779.99
691.35
881.05
1016.81
894.28
609.68
870.62
1007.71
841.01
900.81
795.07
920.20
1026.47
973.74
3519.98
643.28
708.82
578.13
767.01
1082.34
828.21
1299.52
1117.46
1237.06
1036.08
873.16
1870.98
1009.39
1121.05
1418.21
1036.87
1179.40
624.15
861.96
1143.15
730.77
1014.98
1137.09
1211.02
1013.03
1125.21
1003.54
675.90
1060.06
797.88
823.24
892.05
781.72
1047.45
758.43
1169.25
496.90
493.57
806.13
967.22
1086.92
999.86
906.70
739.65
1272.42
1049.39
1154.51
1399.15
1123.03
970.65
951.10
1311.66
1752.46
1102.16
1108.67
891.87
1183.89
789.12
1461.16
857.33
641.81
670.25
1072.30
903.03
1017.48
1023.53
983.18
475.37
379.75
362.88
641.03
656.19
727.21
684.08
696.23
729.33
896.71
784.13
799.49
785.56
993.86
860.38
911.88
3395.15
472.63
409.84
819.15
756.80
674.44
580.32
701.11
822.09
787.05
659.44
747.90
926.45
1346.53
1031.24
1105.53
1015.69
957.56
827.66
1030.24
963.30
903.90
460.11
774.73
664.34
2376.31
1104.02
793.24
760.45
779.17
921.73
844.00
969.20
966.89
863.13
740.45
619.14
1281.60
745.01
1092.39
637.32
1107.26
1182.47
1004.63
780.79
1129.73
917.75
1067.19
1045.26
1723.05
906.70
624.44
709.25
534.03
391.14
596.42
392.14
508.20
831.11
971.75
816.35
766.50
1061.10
711.61
990.16
990.65
806.46
732.26
355.04
686.74
1041.22
1130.31
730.55
919.64
1962.29
1273.75
1248.43
1073.37
1094.61
1187.10
1076.77
910.52
1148.87
1011.58
749.12
1389.40
414.40
693.02
626.73
619.99
670.92
933.36
830.16
1327.02
1208.57
1351.74
887.91
1192.94
1107.38
1163.38
1055.88
971.12
304.33
694.80
950.99
1026.24
863.62
798.18
698.85
1407.24
920.80
707.45
725.15
905.24
671.55
850.02
1026.14
808.92
556.08
432.08
309.50
512.77
903.24
769.97
443.55
801.12
726.13
765.61
709.75
858.62
692.94
1122.97
807.25
930.62
588.35
1006.11
246.93
465.96
294.92
824.37
1003.51
1260.53
821.72
1083.44
719.56
756.01
1204.82
1136.96
1058.87
1183.92
1450.33
1430.30
920.07
896.33
718.11
1067.40
507.35
672.42
3146.06
1150.62
980.32
1049.81
915.27
1433.56
957.82
1170.58
1091.76
642.56
567.23
623.77
1274.99
969.44
1223.91
1105.91
675.24
1031.01
780.52
888.74
757.48
1046.10
914.82
982.05
2047.70
885.90
392.68
612.14
890.73
554.55
609.52
813.44
456.88
727.56
739.60
859.42
576.10
1031.67
841.79
921.36
742.17
815.11
892.18
801.24
316.82
684.09
1008.27
690.65
825.29
1441.21
1186.31
1377.45
1132.00
1178.76
928.60
877.86
859.87
1059.20
763.63
679.41
421.05
1848.58
371.03
653.96
598.84
627.36
236.55
755.86
629.56
780.02
676.11
874.37
1052.59
1199.64
1288.23
1238.85
1048.83
1340.93
774.05
866.08
644.50
773.34
694.47
776.52
662.61
1010.96
905.97
761.96
832.57
883.87
819.71
957.23
1092.36
659.89
339.96
598.21
389.60
760.99
889.68
794.35
801.68
851.42
686.30
828.34
745.86
897.04
784.75
923.73
825.27
794.08
675.05
1451.58
689.52
872.87
760.06
1094.65
627.15
1175.24
763.49
878.80
769.35
899.55
806.22
894.56
1229.43
874.49
580.53
802.26
617.54
683.04
399.40
555.83
608.35
811.33
839.49
886.29
3042.53
1136.44
852.98
957.21
969.46
1119.77
943.52
903.76
751.84
1011.01
814.36
856.85
469.11
826.84
953.89
1006.29
793.37
825.86
933.34
957.56
852.90
898.26
994.33
887.01
651.60
1311.99
621.51
620.06
758.98
594.91
650.27
888.60
758.05
869.22
772.21
1080.37
1100.08
1052.41
1290.76
1316.41
1027.47
1019.26
929.56
1255.76
839.77
1061.56
804.17
732.04
687.03
952.28
711.83
867.31
830.31
998.88
932.93
856.53
795.53
590.71
521.51
545.39
597.20
811.19
401.79
695.21
806.80
904.49
747.87
969.29
863.62
985.61
955.76
966.91
629.46
658.18
582.23
1387.25
1101.06
762.40
657.91
933.57
757.68
1294.55
990.15
938.22
621.32
826.75
828.28
925.47
1013.77
906.72
643.45
953.37
1287.18
767.00
1055.40
710.00
486.92
645.02
666.38
1007.10
2074.22
997.82
1016.30
941.49
952.57
1070.47
945.02
668.68
418.25
707.51
408.86
534.58
518.03
730.65
673.14
789.46
871.66
801.75
1074.69
1289.30
980.75
1473.56
1948.09
2214.60
1174.84
1005.28
334.90
673.88
1176.47
1293.81
1626.31
1490.92
2102.32
1880.71
1379.49
918.94
1214.74
907.52
958.04
1225.16
852.55
821.61
771.62
1115.15
950.40
1204.83
1216.45
1586.60
1686.99
1603.15
740.96
916.54
873.71
796.29
1104.22
1195.70
1056.43
736.48
668.48
1239.90
725.82
816.85
612.45
734.70
824.52
1001.65
846.29
1192.12
1195.04
1410.94
1318.89
1754.38
1363.56
1416.45
986.66
801.63
858.80
908.68
724.99
1193.40
748.42
1220.12
1046.12
1466.52
1013.88
1411.12
1103.91
996.70
688.12
950.76
680.23
958.91
1100.80
953.61
1098.45
1042.15
1216.40
754.01
801.99
886.87
748.77
765.80
984.28
1130.24
973.33
923.19
1150.92
725.26
473.79
808.29
1077.79
1035.71
980.89
1018.88
1224.35
1359.95
1087.83
776.10
3081.08
1297.76
719.00
926.65
905.46
1191.51
631.49
888.54
865.31
785.40
404.00
706.23
2834.28
1075.35
1002.10
1187.91
1167.54
1058.21
850.31
789.58
844.96
1021.52
979.81
1040.70
1053.27
1120.69
959.60
1084.20
782.61
804.05
848.87
969.49
919.78
944.17
1006.12
1312.75
2381.65
1268.03
958.77
671.89
1101.75
1028.94
1233.59
782.28
819.78
639.29
966.86
937.03
1022.67
759.46
703.77
1013.93
1115.24
1397.67
1610.28
2018.06
1129.63
1000.42
1033.88
1388.57
571.24
727.02
710.80
1150.19
1008.52
980.26
608.44
883.82
884.13
1010.20
1034.96
1338.47
537.70
606.41
910.66
823.78
562.36
1010.02
718.32
882.23
660.17
1053.39
735.73
870.55
1207.97
950.69
761.54
889.15
1081.32
759.09
568.83
848.16
869.50
893.66
522.75
693.89
3030.47
1011.99
689.26
805.61
995.58
1270.15
900.39
1207.04
1108.92
914.09
401.59
725.79
3178.40
994.19
597.66
1078.62
950.91
1038.86
604.53
792.33
715.68
846.64
786.46
950.54
1195.81
1593.41
964.20
569.97
837.35
533.23
370.84
762.03
697.86
953.18
993.89
1421.97
1016.70
1501.24
977.59
889.59
808.43
1176.82
1056.27
1070.34
1090.58
1232.57
1030.13
1126.96
557.88
924.52
1204.35
1489.18
1250.37
845.87
816.85
821.43
823.69
1227.90
1078.01
930.91
754.59
1030.11
1110.44
923.24
760.67
933.79
882.78
1293.94
838.42
1116.11
887.81
972.27
801.66
1220.19
1061.61
1105.15
715.76
1087.24
771.39
715.16
391.78
645.20
577.05
673.20
782.81
1171.61
706.85
996.58
820.39
876.25
934.07
867.29
792.32
807.73
662.35
1268.56
1027.03
2315.86
993.13
1030.40
910.47
1085.77
939.11
1056.98
780.16
981.69
770.09
915.52
870.48
2160.65
657.51
778.02
384.54
616.41
730.16
650.48
654.60
837.25
665.51
871.73
697.45
948.18
977.96
820.52
809.66
813.57
727.76
925.45
367.71
579.10
393.16
834.41
602.00
797.72
987.79
1081.38
738.38
914.74
888.13
1038.72
1087.58
914.02
871.31
566.29
809.16
842.38
664.80
1512.80
954.92
855.03
633.74
850.47
741.59
935.90
973.55
1120.23
926.54
1281.22
1156.73
2359.63
1172.22
1327.38
1217.52
1072.35
468.96
775.09
625.68
917.15
742.49
1037.24
900.15
1066.36
928.89
1049.55
882.54
915.22
841.63
956.91
718.65
474.85
281.98
818.11
926.19
2234.01
664.43
967.96
849.33
1097.74
986.95
1134.03
1093.40
1190.59
1058.15
874.53
919.82
1390.70
790.44
929.23
778.60
1053.90
1139.74
1241.85
918.29
747.91
806.99
957.76
751.94
1188.01
793.87
924.03
857.84
785.71
713.37
487.77
806.31
986.11
650.31
765.16
944.92
1302.99
887.69
1200.95
942.04
1073.68
863.09
870.31
1314.79
1779.43
978.40
1027.16
1412.57
2135.34
1377.70
975.75
926.67
921.90
697.24
744.04
873.21
845.50
896.20
992.11
1027.41
2026.44
468.72
605.32
792.60
652.89
536.93
726.23
395.34
911.55
733.73
774.18
944.45
1007.78
1056.97
1196.98
1042.54
1155.48
724.68
809.80
395.69
837.28
609.59
622.02
613.88
819.30
2281.43
1062.49
837.12
1237.38
1100.77
1025.58
916.37
1220.27
984.77
667.49
718.36
585.59
2085.83
837.57
742.03
876.22
909.52
1174.54
1100.82
1328.37
1213.41
1390.88
938.75
983.11
1325.06
664.76
1037.25
631.14
735.26
717.80
956.70
868.36
872.12
1328.13
819.39
964.74
2255.74
996.04
879.17
996.33
950.53
926.31
735.71
886.71
1105.59
1523.40
1296.70
1396.89
3159.45
1395.91
897.27
1009.04
818.83
868.89
839.36
944.06
1043.60
1145.03
849.13
813.56
2077.85
701.30
728.76
590.27
995.90
621.98
963.12
1106.03
756.27
900.76
992.27
1081.22
880.94
1471.60
1101.26
782.03
896.20
1002.09
490.79
679.24
699.22
806.61
653.36
898.88
820.09
1454.11
880.16
901.19
814.35
1203.57
738.05
897.49
470.99
568.48
351.85
737.24
664.81
1326.62
1303.42
1514.25
1115.27
1028.85
561.18
1345.06
1175.97
1183.81
885.09
1141.21
677.48
1057.81
781.41
888.62
379.04
884.08
816.48
636.13
787.71
904.31
934.56
857.13
950.96
2238.30
768.64
922.24
921.48
944.52
780.26
977.67
1083.56
1400.61
1280.12
1429.53
1144.22
2228.53
1164.57
1230.52
954.82
984.98
1064.22
961.17
1007.92
1059.35
607.17
822.93
723.23
1269.47
560.56
876.54
609.63
971.69
824.98
900.33
681.52
1058.80
969.54
1129.74
867.94
2427.50
701.48
890.24
684.13
1063.25
840.93
1257.14
1157.18
864.24
984.65
805.21
792.66
1179.90
884.76
1050.09
854.98
1191.16
715.83
696.54
756.54
865.11
785.87
688.67
419.02
850.88
769.57
1092.34
1024.80
1258.34
1017.83
1072.75
817.01
891.04
841.46
923.88
497.85
642.22
1701.76
789.57
505.10
865.49
672.81
1068.68
975.92
955.01
715.71
1002.55
922.91
994.89
921.28
1315.69
1003.97
1137.62
733.02
956.28
609.13
616.71
964.12
1279.84
1110.91
1180.02
1268.43
1915.67
1273.06
1289.32
1012.03
938.19
1198.18
1500.05
1872.43
1494.06
1216.24
768.90
596.75
784.70
690.29
1017.71
1047.01
913.25
975.91
990.74
784.01
1245.14
1040.68
966.42
736.21
645.42
296.80
727.95
507.75
1007.88
918.26
756.83
923.14
881.60
928.24
1151.80
1088.55
1390.98
1390.18
1589.40
1259.66
1061.85
871.25
519.71
477.78
639.74
941.11
646.62
1934.91
934.66
934.00
1389.02
1133.67
1267.29
1264.14
1318.98
924.35
785.34
532.24
642.72
881.48
683.06
541.34
623.25
512.06
838.31
970.21
815.85
843.76
966.27
888.98
1127.24
904.35
1088.24
1003.84
1062.04
1045.69
1026.39
1166.70
1095.02
938.23
1467.51
1141.09
1176.08
1514.30
1433.16
1183.29
1310.96
958.67
1025.68
1056.97
715.02
702.50
644.35
811.46
854.09
1163.11
586.92
788.74
913.85
762.50
759.57
864.41
1006.92
929.99
1447.43
1024.60
1060.63
1026.82
1329.26
1032.40
1104.11
492.86
693.09
784.66
960.37
942.12
902.18
922.37
999.87
2092.33
890.70
825.09
1095.11
414.77
625.21
440.95
1071.36
760.73
946.68
744.54
868.68
2959.36
1062.56
768.08
1213.31
1173.82
1178.97
1001.76
1395.18
1231.22
1406.03
1213.03
698.13
784.88
1437.66
1837.10
803.95
1069.07
924.31
790.31
932.91
972.98
1060.96
919.55
1280.99
1182.06
1259.40
760.06
442.45
1071.16
776.08
954.45
1134.97
697.66
1083.57
929.60
1484.22
833.44
1008.01
855.02
967.25
951.95
1420.62
1431.84
1338.88
1456.77
1442.55
866.91
1116.27
633.22
935.95
797.73
789.18
652.40
1114.90
888.35
899.15
1070.13
1000.23
1095.76
812.63
342.86
858.29
809.40
754.61
987.72
1068.16
754.80
879.48
841.26
831.48
766.70
2468.52
871.14
1089.79
943.87
769.61
781.78
826.52
563.23
710.83
326.85
740.59
688.04
1372.72
1230.62
982.66
979.25
1023.53
1009.63
1121.04
1014.08
1127.76
580.82
564.73
472.54
1079.99
1303.38
1228.12
862.19
985.25
921.01
912.63
942.82
913.07
955.01
1121.54
881.18
1005.24
1450.98
591.03
614.20
1500.86
1283.74
1183.87
683.65
1160.31
925.63
1365.01
952.95
870.16
911.53
980.66
1031.09
953.47
937.22
803.17
684.97
726.87
934.07
974.05
746.39
705.20
2583.17
1014.06
849.07
867.47
832.71
1247.12
1004.16
1318.56
919.24
1173.98
730.64
1048.31
2018.78
690.44
915.29
512.28
822.72
1397.51
1685.08
1906.47
1034.84
1127.20
1168.07
1062.71
997.94
1021.03
898.77
769.55
306.21
811.68
369.48
896.88
989.03
685.99
925.43
1071.16
1468.93
828.31
835.09
1177.37
964.02
1069.57
946.52
1026.10
608.43
1227.04
1152.31
1343.81
1500.43
1635.24
1141.53
1137.56
940.45
760.77
944.94
1049.14
959.11
1044.68
1135.85
2463.60
976.18
1175.11
1017.93
1148.57
586.62
1008.33
743.02
786.40
1007.94
915.56
642.18
1990.11
826.14
834.57
868.38
887.61
751.81
705.77
655.05
1266.50
849.26
920.89
881.72
1429.66
1653.95
1522.71
956.58
801.76
955.42
1039.24
830.59
1081.35
846.32
612.65
627.91
581.89
744.75
666.67
478.37
1082.26
649.96
868.42
1036.50
792.72
804.31
980.43
1087.93
984.20
2290.87
1237.65
1039.76
1397.44
1322.42
1209.72
879.78
1426.38
1055.25
1656.33
1440.05
1227.02
574.35
934.60
1008.57
1018.95
1115.50
1190.88
1501.59
1341.02
902.46
592.70
472.98
1332.24
948.19
1040.04
1111.44
1016.77
797.14
802.40
832.99
951.75
1063.97
962.78
995.05
1957.56
892.96
1470.68
1431.55
1560.75
1243.41
1559.07
1781.84
2202.49
1654.48
1101.38
949.71
1012.09
959.63
829.81
1031.36
1237.55
836.27
489.78
573.58
637.50
687.19
663.79
1041.90
762.57
886.38
847.81
812.17
902.65
842.41
921.84
815.14
884.42
802.36
867.32
570.55
2175.20
1193.92
1081.29
657.09
1066.57
1100.67
1702.55
1571.85
1967.41
1418.93
1091.46
770.93
1145.84
1135.31
890.95
619.96
1066.72
620.81
626.25
593.00
833.56
575.02
844.23
914.36
1679.37
1611.42
1709.04
984.77
951.76
847.70
1102.67
613.42
524.59
476.67
792.24
860.61
1318.28
897.89
1280.34
940.19
1007.22
707.18
824.67
945.51
905.73
838.06
1190.54
934.55
1034.31
874.84
555.54
310.41
480.40
589.25
686.79
754.48
897.35
712.03
982.71
936.70
1128.59
882.34
1063.75
1118.62
1199.34
852.10
935.66
585.36
1186.46
988.08
1102.83
893.27
2283.72
1050.94
824.72
975.78
1123.33
995.46
905.08
1164.73
1208.14
599.68
524.14
459.93
1876.44
650.11
923.22
782.70
760.44
770.29
924.15
665.99
1048.14
924.94
1071.74
1037.60
1372.54
1274.93
1131.54
886.35
711.95
491.74
744.00
818.14
945.14
1085.51
1427.06
1109.94
1790.00
1078.15
970.44
823.03
960.66
942.96
768.95
502.71
796.74
477.52
820.21
801.53
1825.32
675.56
953.13
728.25
873.00
750.38
1080.30
941.87
1097.79
960.12
1135.37
509.58
698.46
826.69
418.66
832.06
945.67
1025.80
1665.01
1285.01
1707.62
1072.81
1022.15
875.86
1027.47
972.14
1029.92
948.22
885.83
421.19
689.90
418.57
633.70
986.65
730.84
1017.56
1081.61
1882.53
890.96
946.01
1013.50
1000.08
1244.44
951.20
1139.83
717.41
1225.36
925.76
1037.20
1949.70
999.27
628.99
1050.53
1101.02
1223.62
890.69
820.98
1064.92
1008.72
971.61
804.79
1418.09
619.35
792.36
481.60
699.65
448.16
496.04
715.57
773.17
926.60
824.51
1121.85
1070.18
1425.76
1101.03
1098.74
871.99
955.07
832.95
1124.46
726.16
954.23
708.41
1133.63
1878.46
1371.09
873.39
1064.47
865.80
956.78
781.48
995.57
1016.24
648.37
405.18
724.07
1991.33
785.06
629.26
849.93
757.78
746.34
756.62
816.05
844.58
992.51
936.42
1037.59
958.94
1323.19
701.80
959.42
1014.88
1042.47
1102.97
1349.99
1135.70
1559.18
1367.09
1416.25
671.98
1050.40
931.76
1030.28
989.66
1107.82
857.15
680.73
339.97
562.68
391.89
520.86
844.28
1130.34
734.06
1098.96
936.23
819.11
929.73
1222.07
995.23
1026.12
975.46
983.39
837.50
1189.98
928.31
984.61
807.31
969.55
558.82
863.59
859.50
861.49
657.34
1035.45
977.07
2563.74
1010.04
1140.65
550.43
551.08
371.00
795.28
667.31
661.84
510.57
780.58
897.87
920.74
769.74
961.24
948.72
1184.17
954.66
1233.86
1066.27
846.43
551.47
756.42
524.00
925.49
1000.64
849.08
1132.57
996.18
920.93
935.19
889.56
1054.63
772.40
1209.96
1144.84
1369.67
1561.64
1207.66
1121.62
1492.26
825.51
774.84
1512.61
2103.86
2076.22
814.46
884.23
2139.28
841.06
989.62
1036.07
1234.05
766.91
813.17
1030.30
1119.43
738.98
925.55
826.78
881.68
632.55
690.10
654.91
980.97
1038.77
980.10
809.75
976.35
847.82
730.20
387.12
752.30
1632.31
888.75
675.66
739.43
747.32
975.26
979.08
1336.52
1138.40
1304.09
1069.21
1633.79
2249.74
1147.03
711.35
1460.91
1175.08
1434.55
869.34
885.37
366.85
840.81
998.47
817.38
738.78
834.14
875.77
776.76
969.42
929.20
592.57
786.29
464.18
577.50
369.05
447.71
2512.13
676.25
900.42
813.41
706.57
859.09
667.40
818.68
903.86
1184.21
1002.70
1349.52
738.68
1571.69
834.61
1164.62
897.69
944.05
970.90
941.82
893.11
764.62
846.01
795.71
903.83
1431.81
1003.20
884.05
439.35
700.08
482.91
664.26
717.82
671.58
509.77
877.14
937.18
1011.58
933.43
1310.30
1029.48
1118.59
913.77
1051.91
869.14
1085.15
939.48
1117.95
768.91
2363.12
931.29
747.93
943.03
887.90
607.51
927.75
965.01
1218.54
900.36
967.09
1011.77
860.80
935.96
948.36
786.45
786.98
399.76
631.47
967.14
829.08
759.37
872.79
820.86
972.99
2358.42
1085.77
802.42
983.17
739.69
941.82
629.38
524.33
664.67
665.25
591.10
957.76
954.87
1082.28
823.32
902.41
838.67
994.57
945.12
991.73
469.82
460.51
758.97
1161.06
783.08
814.05
421.51
683.68
697.50
822.86
810.64
835.61
763.30
1049.72
991.55
1182.79
941.35
1121.54
1641.46
794.18
641.79
959.20
858.57
1257.66
1047.95
1115.11
984.25
1154.04
1007.48
1020.46
1163.84
1179.16
1013.05
914.94
585.33
650.64
528.37
990.13
828.37
794.48
808.45
1264.90
1400.56
901.26
666.45
710.15
879.19
942.46
767.19
1008.31
467.68
315.40
702.07
474.09
2750.23
805.45
656.60
672.14
645.62
921.46
765.61
860.46
839.32
1132.32
978.18
959.47
1035.98
888.69
676.99
562.72
583.54
998.99
854.50
877.78
826.30
645.54
851.58
875.70
1077.90
1103.75
1140.33
1046.64
1056.60
991.23
502.28
977.53
948.25
883.74
900.58
868.62
726.88
917.42
1011.14
969.69
856.60
1054.82
866.58
1025.21
755.32
1127.60
623.32
771.19
891.48
1371.51
2015.96
761.18
990.10
500.92
968.89
991.51
793.74
950.98
955.66
1155.21
1037.59
1019.57
3015.28
1067.68
545.93
948.45
594.24
590.44
653.62
1016.77
1065.99
1202.20
888.97
870.42
795.45
903.36
932.37
966.95
892.55
815.05
410.00
641.35
348.70
646.69
542.93
757.82
595.67
701.83
880.73
996.79
808.20
928.75
723.29
839.13
1115.54
1356.40
737.91
764.03
770.24
657.10
925.85
823.11
701.44
1157.80
1065.11
1088.12
626.49
703.50
681.67
855.79
825.00
1122.41
1490.66
802.49
438.62
994.11
716.26
749.23
523.71
860.54
778.50
875.37
746.26
833.79
3497.27
1178.97
1036.03
1074.07
929.72
906.07
651.31
849.85
987.32
901.38
766.65
800.14
604.62
1256.01
948.89
991.63
744.64
908.83
995.61
914.39
955.39
925.54
415.41
398.67
520.48
1889.15
501.66
804.61
773.27
657.72
898.35
604.79
745.75
891.87
1156.82
1441.03
1332.11
1749.02
1898.97
2313.11
1675.34
1141.67
627.06
612.33
682.06
924.82
961.40
861.14
794.45
1254.57
858.44
861.66
1244.20
934.34
966.85
684.16
560.55
947.98
1117.70
984.48
693.00
2126.48
739.19
794.45
1088.83
701.07
636.80
808.80
1008.79
1026.19
892.92
997.96
909.36
566.17
507.72
932.61
1292.73
769.09
686.61
864.67
1044.23
1062.97
769.89
829.39
825.94
875.41
1422.63
973.12
947.92
564.84
424.39
446.30
506.06
842.96
859.19
371.92
804.59
864.15
653.32
957.43
861.76
1259.69
1206.24
1843.62
1077.00
1195.94
1185.93
1505.99
969.10
786.25
1822.67
852.16
578.03
855.18
752.85
832.82
633.63
890.15
851.38
905.80
865.34
911.86
873.24
506.82
214.92
616.75
332.47
581.17
995.02
845.97
573.21
847.87
792.53
878.01
829.00
1015.48
1039.48
1161.30
1243.01
1583.35
1117.22
974.25
537.61
272.60
551.71
1063.71
1396.56
2115.86
874.23
482.97
952.33
973.33
978.40
804.87
1121.78
669.09
943.82
797.34
1292.97
1140.87
702.32
769.96
790.07
901.73
677.77
782.82
864.94
953.90
1077.70
974.27
812.45
963.68
1283.20
744.00
617.76
692.67
320.33
789.29
988.70
857.40
957.16
863.64
794.09
873.01
3829.30
769.13
975.76
1103.92
913.31
502.16
955.25
634.47
435.33
951.67
757.68
843.21
870.86
1180.46
794.02
909.60
903.14
1189.06
889.06
898.86
810.54
1081.68
697.26
843.48
922.87
2070.01
583.16
771.39
482.61
974.58
798.82
870.40
745.20
1075.88
806.34
856.59
928.63
972.33
857.05
521.77
397.47
477.80
764.42
595.65
685.99
393.47
772.55
787.32
746.90
945.01
3537.95
1168.88
1054.48
1199.30
1244.26
1209.65
735.55
1064.47
1172.80
883.57
1019.40
713.80
1457.87
936.67
944.70
767.54
985.10
1082.09
932.71
946.56
910.93
728.86
361.58
557.17
3748.17
652.16
394.36
861.07
742.08
1087.45
872.08
1014.73
883.24
945.21
863.11
1115.20
932.37
1255.22
983.05
910.12
1076.53
878.01
817.73
676.93
992.61
825.80
867.38
1030.85
825.03
705.35
961.62
869.55
1167.43
1030.51
958.94
702.99
807.54
689.01
465.81
707.20
719.30
503.29
979.97
724.37
984.74
591.65
865.83
931.47
924.02
846.00
905.78
1261.95
873.07
989.92
1941.17
1125.39
1117.86
1316.16
1176.14
1698.16
1118.93
1228.46
821.40
1159.59
1010.31
2616.94
1108.50
1043.35
594.25
390.74
440.93
758.40
628.22
1154.37
1066.47
741.16
717.41
2125.19
764.22
845.80
830.67
1277.00
1051.12
875.74
845.23
386.73
935.71
605.67
662.70
697.35
920.05
1076.11
915.72
1068.03
916.01
769.15
943.35
739.24
937.02
1077.48
1065.51
1183.53
673.96
662.12
672.30
584.76
539.08
433.04
418.95
722.59
712.79
871.40
900.31
1235.23
1626.04
1281.48
1115.23
1361.46
1040.92
1142.09
1018.10
1192.77
724.83
577.70
766.65
904.83
1346.82
1514.66
1020.11
970.43
972.37
905.94
1077.93
1402.59
1086.83
659.63
893.42
1214.01
941.90
622.17
782.36
526.43
757.77
773.73
1003.99
854.72
1057.96
1174.15
1025.36
1223.27
1046.91
1332.80
1065.60
984.92
1064.22
1008.43
673.86
1003.23
993.10
1167.66
1295.20
1468.37
811.98
1096.14
1045.17
1225.38
931.92
938.52
730.97
669.08
690.39
757.39
632.03
1391.29
531.37
852.51
840.41
874.78
832.85
1046.61
1166.57
1113.38
1036.20
1155.07
1083.28
1477.01
576.64
1027.73
736.06
940.81
739.51
765.91
948.50
1048.14
800.66
659.43
911.56
2206.91
855.84
832.53
831.09
866.95
451.39
650.38
638.09
487.52
735.92
783.03
501.68
828.85
1024.27
816.29
872.74
1084.82
1068.71
1003.57
880.11
1115.81
801.28
949.23
705.68
872.14
1304.33
832.21
775.39
960.72
1110.67
1294.82
980.39
941.24
1139.19
981.72
1029.62
754.63
1717.78
484.75
738.08
600.50
696.28
578.97
660.00
733.09
695.11
777.04
809.69
847.98
791.70
1020.18
1097.01
1084.42
1135.28
1209.53
594.98
941.64
881.78
1195.89
1095.69
1084.55
2621.05
1117.51
957.59
856.60
1024.39
770.10
1090.60
929.86
1077.54
948.03
990.30
652.82
1022.74
854.30
854.36
903.98
944.23
721.44
956.89
848.07
1067.20
1176.95
1180.56
1302.92
3414.23
1278.62
1131.71
1328.12
1045.49
1133.75
591.22
1113.69
782.11
1157.59
1048.14
1301.01
1050.29
822.54
922.25
1075.62
1053.76
1083.59
1236.85
1047.08
657.73
822.06
443.32
868.70
587.36
591.81
786.69
532.12
1029.06
855.61
800.35
874.54
839.14
1099.20
1068.44
1169.43
943.73
1163.97
471.93
724.01
671.84
1005.91
723.69
872.75
1052.49
1005.25
774.79
780.23
1137.14
934.45
990.93
1017.70
1154.35
480.33
954.89
419.11
578.60
843.23
610.98
818.76
1150.01
926.85
824.34
733.41
1092.76
1066.19
1149.62
1219.29
1000.34
975.39
606.48
623.19
843.11
820.84
875.46
906.70
766.01
1148.22
1116.92
864.75
899.85
1006.04
980.28
945.15
1512.47
896.12
827.61
338.52
315.68
816.44
615.94
563.52
1008.59
653.48
732.86
782.08
920.34
936.13
1030.27
964.57
976.78
1128.73
1093.94
1000.19
1040.74
914.56
946.10
931.29
987.39
1348.99
1184.64
1332.72
1169.23
1030.02
1135.43
1053.46
1175.39
1057.08
968.83
1043.53
2413.61
1212.32
742.15
887.54
896.22
1171.44
907.93
1082.24
898.84
853.94
996.07
955.09
2436.76
999.71
1061.47
970.40
869.39
1072.72
942.24
1245.67
928.37
1013.66
560.08
971.70
4077.65
1171.82
837.94
917.75
979.20
750.82
963.63
814.20
1075.81
566.94
518.80
482.56
510.88
820.85
491.46
857.19
541.67
878.73
837.90
930.60
1007.08
1235.63
995.19
1104.79
893.52
2608.54
764.38
825.58
753.10
988.90
778.89
973.31
718.06
1094.06
783.10
905.14
730.64
838.76
928.66
803.19
935.43
944.15
721.97
608.11
707.90
706.58
599.93
1264.88
1081.58
1205.13
1546.46
776.89
848.21
758.33
876.85
1029.48
1028.79
936.34
1059.50
1064.80
901.58
1136.50
1816.26
1111.39
800.08
1123.04
1023.01
1362.58
952.72
840.70
845.46
614.14
1025.51
788.79
1510.29
780.19
557.64
288.10
605.87
389.08
775.10
808.53
557.74
929.45
964.33
1180.73
1167.97
1324.40
1283.05
1323.71
1225.66
1433.92
1135.02
1006.22
935.28
421.07
1398.59
946.42
1552.34
835.01
699.92
1126.59
1021.75
1049.83
1051.84
896.25
883.88
951.93
1079.55
444.72
1250.16
749.09
902.24
536.73
641.64
811.05
634.51
773.49
655.30
897.23
918.24
942.51
920.90
1114.23
796.82
1066.35
705.26
830.95
614.74
982.83
418.61
863.64
862.98
945.36
943.72
2140.98
663.51
912.07
792.07
771.32
1025.63
643.24
615.13
390.58
313.16
567.30
566.49
674.37
869.38
704.96
843.01
682.05
692.33
637.35
726.20
922.37
952.96
951.98
791.47
876.32
365.05
929.91
682.47
914.75
635.46
764.25
684.03
942.18
911.72
609.46
750.20
890.85
909.70
765.59
881.51
834.70
427.55
380.94
362.12
417.81
963.46
441.37
542.85
817.93
675.49
717.10
2062.54
1191.97
1166.63
1026.64
939.04
1012.80
758.81
1097.08
1229.24
1148.61
1095.00
1034.50
900.95
854.38
961.89
971.04
929.23
734.81
805.52
692.67
1000.27
797.79
937.47
334.60
3338.32
627.84
499.43
680.77
614.44
872.49
721.02
852.87
934.49
803.30
781.61
1032.20
925.67
1457.49
1035.47
1285.91
966.95
1370.88
919.55
990.34
712.26
949.22
1138.32
1415.30
1065.21
1122.84
703.76
856.14
830.47
873.31
878.65
852.77
698.95
486.63
412.14
509.06
661.06
1728.56
914.67
391.75
842.45
670.45
719.98
893.40
982.53
1458.48
1314.57
1478.60
1455.80
1755.06
1370.75
1731.31
1263.42
1288.80
731.06
977.38
736.91
678.38
763.36
511.39
903.90
821.18
891.91
730.54
877.77
750.80
529.88
697.79
473.72
797.05
581.38
692.43
715.62
590.68
1221.28
918.03
929.15
626.65
811.80
1034.88
860.93
1170.27
998.00
1123.93
678.19
612.84
758.50
980.13
896.93
1466.23
1488.25
1371.66
791.93
733.61
831.36
587.66
923.56
972.95
1460.38
861.51
515.23
670.74
810.77
606.45
786.28
802.04
796.21
785.84
960.39
1151.84
943.93
1017.99
1037.80
1011.38
858.69
969.53
407.62
341.10
597.80
289.98
630.73
339.37
666.49
1576.12
1117.60
1264.71
862.97
1221.34
956.52
1100.67
1083.78
955.26
655.07
508.84
418.25
557.09
371.55
457.11
704.26
590.64
888.53
812.87
774.05
929.37
786.54
899.05
982.76
845.32
956.56
1147.06
1068.74
905.22
1112.60
966.97
761.89
942.46
817.07
1324.53
971.78
750.86
1017.39
915.66
836.48
742.80
961.67
872.73
421.92
477.34
576.27
794.52
516.89
757.43
3074.38
626.89
919.37
747.40
650.36
990.05
1125.12
1214.60
1127.72
1213.17
795.20
1015.09
2077.25
912.95
558.86
991.38
611.13
774.92
634.46
966.67
874.90
723.61
771.63
936.59
967.21
1192.21
884.66
538.57
406.33
693.98
1216.67
1095.06
963.23
958.47
629.68
698.42
771.48
1507.07
1015.11
969.51
1017.57
1145.94
1112.60
1129.63
934.26
1073.40
935.31
1150.06
852.51
1274.92
1099.00
1335.76
1192.09
1120.34
833.82
948.95
992.58
759.97
910.53
636.50
3813.48
679.29
1037.51
1321.53
1160.15
1234.72
901.01
782.38
924.31
745.51
925.39
986.16
3252.95
1388.86
1299.99
1137.37
872.58
569.90
654.52
793.90
747.04
876.74
656.05
946.40
3162.98
928.47
917.53
713.27
859.06
1000.47
1081.37
912.61
1006.03
1035.80
770.24
965.80
777.62
1045.00
709.17
855.77
549.58
759.15
759.52
835.86
803.44
1104.72
879.34
1133.40
820.10
1300.18
1035.82
1133.58
1053.90
972.13
669.34
1030.26
1025.41
926.24
1061.42
1133.90
688.08
955.20
968.41
912.39
918.42
750.38
952.25
455.58
678.99
318.68
436.78
449.13
519.06
851.93
818.11
726.56
812.04
826.15
826.92
984.46
1069.79
990.32
775.26
891.68
863.78
860.44
1792.67
1164.21
542.69
810.42
707.39
1344.93
930.63
1072.41
771.27
961.81
947.41
873.00
2173.33
928.88
672.69
446.04
569.83
446.58
583.60
658.13
669.22
813.40
851.09
898.42
1039.67
1074.87
992.06
901.06
938.22
842.33
915.96
857.79
567.53
1018.75
1348.79
772.48
552.68
1441.30
1113.37
1113.73
1113.11
849.98
914.08
933.20
837.48
733.54
1033.62
914.49
752.75
1227.30
942.01
786.15
653.64
873.44
700.18
728.27
878.94
784.00
704.18
913.85
882.95
857.61
789.14
915.98
1087.05
1078.54
864.25
1075.98
906.02
1014.14
741.40
798.60
913.04
1153.90
3195.04
796.51
720.46
980.34
816.71
917.71
973.56
876.79
947.61
665.30
543.99
609.09
795.21
960.43
628.50
690.93
694.22
840.22
766.58
899.91
930.47
907.64
813.39
969.26
817.06
940.21
1013.69
908.73
661.03
915.69
863.46
1144.40
1027.59
1155.06
901.94
1068.46
872.94
857.68
1245.36
945.85
1005.34
713.56
798.41
520.56
533.90
825.07
508.62
530.19
864.37
511.71
774.57
724.89
757.72
1069.48
818.04
907.46
840.19
823.32
731.27
557.09
689.41
673.22
605.63
979.58
1223.90
1821.60
1398.34
1211.69
720.59
786.70
721.47
589.74
932.00
691.40
569.88
635.62
532.41
639.41
459.62
685.75
632.61
491.68
846.20
622.00
903.39
1008.55
984.84
1061.13
2118.64
912.77
746.63
771.39
839.03
865.49
632.67
782.27
770.76
893.52
802.31
1125.68
942.72
1007.82
910.75
728.12
831.41
666.80
693.86
447.73
447.38
536.33
713.83
705.51
645.67
2015.64
607.96
628.67
746.62
898.00
795.79
944.67
790.50
980.62
777.98
1127.08
833.18
785.72
815.18
1031.88
501.35
1074.66
808.51
948.69
881.74
791.74
561.99
764.64
777.50
706.66
666.29
795.54
689.57
454.16
302.20
618.00
549.98
445.00
700.85
515.78
597.87
599.22
653.69
790.38
947.24
931.26
872.72
837.72
901.79
908.86
519.54
968.69
695.50
1005.08
821.51
770.49
1822.86
1060.95
798.70
873.15
773.22
896.82
819.98
804.35
833.14
685.11
497.27
563.86
682.87
530.05
557.40
512.92
674.54
549.68
679.06
674.39
739.82
838.38
636.31
855.52
772.73
823.83
791.32
756.92
546.16
957.37
946.73
977.55
684.42
613.75
718.26
835.20
722.80
540.08
1901.52
616.30
677.57
796.00
868.98
666.64
516.41
362.58
585.24
519.16
1086.28
689.38
475.81
876.64
681.89
900.39
747.65
897.53
778.96
875.62
990.68
939.55
635.68
812.30
689.12
1058.89
866.44
777.00
824.89
1084.86
1022.37
973.37
614.95
1074.60
873.06
856.95
834.43
863.51
1215.65
487.07
607.67
372.77
386.48
659.40
450.97
677.61
593.94
630.03
662.78
878.22
900.31
1070.60
965.70
1166.03
880.65
1106.18
797.04
825.48
492.30
749.00
575.75
837.33
481.19
1153.82
782.87
716.94
727.97
746.26
678.38
850.84
897.35
787.27
412.97
467.85
426.44
445.40
865.76
701.41
875.10
741.01
610.17
643.80
798.43
821.14
811.31
1022.71
921.33
1110.56
2005.38
932.53
994.98
802.34
454.08
796.26
656.72
907.93
946.20
1117.10
765.54
714.19
2883.78
834.93
833.97
788.44
958.03
467.30
833.73
422.20
282.89
616.76
1046.42
661.87
717.32
941.07
889.30
914.45
713.74
968.10
900.86
1074.35
1011.60
982.81
676.58
810.81
819.86
878.03
821.95
918.76
882.60
1069.55
897.89
1069.93
675.42
783.84
946.44
795.75
959.91
809.93
2008.50
527.95
536.12
775.49
876.41
637.59
788.40
800.18
639.86
938.40
732.14
974.09
852.90
1277.51
1102.05
1018.57
1034.27
1098.32
668.98
1087.42
1062.69
1019.84
779.71
1135.84
739.05
1219.91
887.68
672.55
882.82
682.54
967.66
876.64
1016.93
904.73
468.82
557.17
358.42
1036.91
479.41
483.54
401.45
392.99
921.13
591.30
723.67
1016.39
1030.33
1278.13
935.63
1895.86
1054.48
1199.25
871.57
1181.00
819.44
1004.74
629.04
737.69
633.58
1007.19
774.78
1152.11
769.34
828.58
909.63
835.15
944.42
600.33
420.78
459.71
532.73
485.43
571.16
590.89
698.42
790.50
830.25
886.43
809.75
921.01
906.91
909.13
855.43
994.23
633.21
604.22
2429.93
743.65
670.30
1129.09
718.66
1332.23
889.26
1192.16
720.29
903.35
793.72
767.80
2971.76
744.02
912.78
401.95
664.56
553.74
1032.65
697.95
415.54
730.52
885.47
677.17
869.21
1225.62
796.86
975.56
1110.48
1008.53
929.10
906.98
654.11
1035.70
833.11
837.27
862.39
880.70
672.75
1048.14
801.58
984.84
946.04
1018.34
922.67
789.94
869.45
969.12
403.54
379.41
1494.16
374.99
567.88
563.47
655.55
535.89
897.12
613.76
654.84
970.71
918.70
1016.87
767.43
1192.58
962.95
1038.57
475.25
1056.52
828.60
891.86
645.59
1098.29
900.84
1110.76
827.14
858.27
809.62
796.66
892.58
810.73
801.13
597.18
477.87
501.48
461.71
499.40
448.48
635.19
568.37
773.10
569.20
851.18
620.86
902.40
762.99
1063.92
809.11
859.80
625.50
759.28
2193.14
929.96
608.47
780.53
705.88
1179.37
907.56
971.83
558.98
899.56
760.30
662.56
632.65
983.63
896.96
646.26
534.53
495.10
710.86
442.02
964.26
462.77
623.11
596.90
641.30
712.18
916.58
906.48
840.25
940.92
820.88
910.88
838.62
1012.55
512.13
575.21
648.38
698.30
1834.65
1217.90
905.37
942.22
843.43
977.38
769.87
531.63
744.56
644.62
576.74
308.40
629.73
603.09
808.08
724.18
550.51
410.35
836.84
524.77
712.70
793.24
836.79
956.69
858.72
1084.06
1006.34
947.74
943.32
677.66
617.80
867.09
910.97
887.00
714.51
891.89
669.94
713.30
1091.71
734.23
642.94
692.28
741.45
683.69
626.18
475.41
237.64
470.80
476.82
460.85
483.46
708.72
508.61
781.22
569.63
845.40
715.00
834.41
681.33
818.23
643.50
1048.87
693.61
775.20
665.70
946.11
640.48
1041.15
848.92
1005.65
628.93
927.81
643.36
801.01
894.51
561.90
1194.63
511.70
584.49
847.79
652.63
795.38
536.32
489.07
653.01
502.85
626.77
515.28
673.64
783.21
681.05
696.37
831.82
773.29
552.21
714.90
706.41
885.96
491.92
866.87
587.02
861.40
844.27
770.81
726.83
1070.32
907.63
880.79
920.71
1003.30
624.27
453.55
210.64
540.87
1002.28
342.55
587.54
328.47
664.00
481.12
468.60
576.97
693.16
719.29
631.41
668.69
606.28
808.71
810.13
568.35
369.68
789.41
561.08
806.64
934.10
1001.26
684.79
507.04
687.20
616.69
641.19
725.84
634.73
485.87
375.57
589.36
661.23
577.49
416.04
567.48
579.50
566.49
2210.35
755.80
655.23
966.90
823.15
837.76
765.68
658.03
514.82
706.96
659.37
852.08
436.74
996.51
417.81
871.47
590.49
887.56
562.84
572.63
690.62
840.23
606.81
743.24
752.58
614.08
453.47
509.41
317.75
417.27
525.01
505.96
636.89
553.07
560.60
739.91
670.20
950.40
2261.55
938.65
868.25
1007.36
741.73
833.04
771.21
835.25
499.85
842.61
633.00
836.61
602.25
709.02
537.30
579.10
567.48
500.49
714.55
675.80
583.46
477.72
487.91
513.72
648.75
448.62
694.99
315.21
701.04
446.58
647.45
657.63
672.25
696.13
684.34
875.40
706.86
743.99
2131.53
693.63
848.31
896.99
591.41
938.18
717.98
1093.77
778.03
672.75
719.38
538.79
679.42
1173.52
821.28
896.15
576.81
653.18
601.12
576.58
431.11
577.54
529.08
368.66
667.49
594.23
554.31
757.33
716.77
786.41
686.34
820.57
842.64
827.10
686.61
1191.98
612.57
934.18
1326.37
1142.63
1026.91
901.15
567.98
673.50
589.21
611.33
706.71
552.06
702.30
335.53
1950.49
565.15
578.98
483.36
451.91
525.63
677.61
540.62
666.05
430.11
634.70
700.78
669.66
1152.85
678.26
667.70
478.79
739.04
550.29
506.76
682.32
691.99
626.97
870.40
817.66
718.27
743.69
998.00
684.76
691.77
595.05
583.26
531.66
621.23
613.93
631.11
770.08
512.44
1925.15
472.81
437.64
521.73
475.89
689.23
663.99
572.84
673.68
724.31
721.59
760.30
477.54
985.81
899.99
1651.65
1255.73
1285.11
1059.89
1097.22
846.65
629.44
720.32
642.10
666.99
1196.99
701.61
436.46
450.87
414.86
426.45
462.82
520.66
378.01
610.45
593.75
723.98
762.03
914.61
1255.11
1118.15
1286.47
867.56
1022.95
784.66
915.41
479.62
1044.33
495.30
863.78
1107.46
1318.13
1052.14
1061.72
627.63
685.79
729.86
673.15
819.10
668.84
733.47
332.25
655.77
468.66
449.89
701.37
647.82
692.39
756.43
693.98
690.64
718.39
709.17
975.57
786.70
1011.00
779.97
622.13
443.68
397.56
299.51
752.77
902.07
641.66
548.84
631.94
662.91
562.09
600.21
1033.97
779.52
844.01
618.17
644.48
480.29
341.18
362.05
364.57
485.47
547.85
1767.36
445.09
662.19
549.07
713.20
722.62
654.90
809.67
743.66
889.94
815.93
930.47
773.22
1312.61
838.79
1159.52
771.04
1008.09
705.15
915.17
554.89
609.70
586.32
645.53
628.96
1665.87
699.74
524.59
373.19
445.52
466.63
667.86
705.56
681.86
510.74
461.21
625.18
656.54
795.45
893.44
816.98
1039.89
713.07
932.31
703.92
820.93
938.94
796.29
755.29
699.43
922.45
1045.84
876.00
964.50
526.73
634.16
676.78
595.64
688.15
646.35
757.91
349.95
442.61
404.48
338.81
462.59
819.11
507.90
660.65
548.54
748.86
847.42
784.80
842.21
837.71
844.40
1736.75
796.30
718.18
990.34
1126.75
1191.59
886.22
954.86
846.14
1187.41
985.07
849.69
1750.69
806.29
722.65
583.33
675.71
651.37
517.30
400.58
855.12
480.06
614.41
405.51
610.28
914.42
649.80
726.58
714.65
870.69
917.00
872.14
770.80
913.80
816.96
792.81
805.07
890.01
887.86
969.69
805.25
949.04
1066.56
1143.90
849.49
573.93
743.98
506.94
632.10
590.69
1371.24
480.98
313.00
463.13
507.63
738.66
705.64
555.77
435.85
610.81
549.44
691.99
611.61
1024.83
792.90
967.31
816.32
986.09
630.06
915.61
908.31
723.83
752.57
815.82
794.57
982.12
1112.44
1109.06
728.23
692.54
738.89
659.09
863.53
726.88
761.67
431.02
383.86
245.23
772.70
302.84
365.62
707.73
743.56
744.74
901.17
951.82
960.07
1421.19
1245.14
1270.37
2548.25
1206.63
726.38
856.01
882.28
849.72
535.32
874.04
690.09
913.94
844.54
799.64
2493.90
792.47
826.21
697.30
920.86
687.05
545.08
336.77
348.80
391.59
517.41
636.27
870.16
1061.58
832.64
708.52
892.97
913.28
1004.65
1124.57
937.36
968.01
880.37
944.64
770.84
873.25
642.94
1045.44
799.94
1076.66
914.38
1182.44
830.28
627.61
755.66
702.22
690.16
742.88
2032.29
634.68
432.10
589.96
656.43
645.84
454.46
810.15
471.69
696.15
669.32
877.42
796.09
1295.10
881.07
972.24
859.54
937.11
742.32
903.16
465.88
851.99
733.49
835.87
641.78
863.55
949.28
1147.04
694.46
765.54
750.10
763.88
790.30
785.02
806.80
510.99
235.63
501.51
1265.89
710.69
500.44
703.76
920.62
753.93
712.42
832.64
860.13
1060.41
782.91
857.78
2230.04
1065.79
891.80
772.27
600.84
892.02
882.67
740.58
746.05
1034.64
952.15
955.26
784.69
1100.58
925.77
884.29
869.58
741.82
545.24
515.09
401.64
349.22
451.47
623.79
842.22
641.31
856.03
721.21
797.24
1044.24
957.19
1025.89
798.09
910.96
1056.00
1121.48
733.50
968.51
1242.81
1061.48
833.92
1085.59
1090.70
951.18
831.13
656.39
745.99
695.35
801.76
775.32
2012.94
692.94
491.59
538.45
613.78
573.44
432.73
745.74
683.89
617.26
940.69
788.68
753.66
1259.26
941.32
1128.20
952.05
1114.41
742.45
959.95
818.26
905.21
717.53
991.38
917.43
1480.35
1180.70
1211.03
780.50
734.23
816.02
799.30
804.70
934.67
923.45
612.26
403.49
1631.44
526.55
435.82
326.46
752.06
567.80
883.37
860.84
906.90
821.33
743.14
877.64
758.83
960.75
859.82
597.95
730.31
480.36
733.90
913.73
756.54
813.25
1063.95
793.12
789.30
2015.80
743.67
749.92
719.63
914.19
689.69
626.17
565.34
290.31
450.93
462.30
716.51
571.36
1210.84
678.85
735.37
617.04
909.98
959.82
985.16
894.04
840.93
978.25
829.65
789.82
840.80
619.43
921.82
655.33
929.56
1007.96
1318.42
962.63
666.81
897.56
781.57
831.81
834.62
1918.34
714.99
367.71
226.33
453.18
740.96
716.39
681.65
652.11
793.16
798.81
1177.52
1219.04
1564.38
1216.16
770.07
875.05
771.84
695.14
853.68
516.42
896.20
749.78
726.76
707.70
797.32
866.29
1032.81
754.05
774.35
896.16
717.75
938.04
710.32
779.87
862.78
797.21
855.32
962.19
505.05
610.26
666.56
851.66
762.07
714.11
729.45
702.02
817.38
819.16
790.14
2296.60
908.14
672.92
894.98
764.80
1083.86
855.54
947.33
940.31
1123.47
953.63
954.66
675.54
1086.37
869.40
760.93
852.18
795.38
840.84
639.85
734.16
666.14
746.89
875.08
648.86
622.48
1077.96
756.37
700.62
826.73
824.08
1018.26
963.55
1097.40
920.29
1160.29
842.28
1007.93
980.93
1079.96
729.44
871.05
851.06
1220.20
894.08
879.98
785.66
728.88
828.14
870.40
1399.34
782.73
448.28
534.39
315.29
533.23
697.52
569.68
692.13
813.88
826.45
746.81
603.97
1103.26
952.53
905.58
1058.74
1080.27
920.71
1038.17
800.29
992.89
760.92
899.66
759.67
2021.94
984.33
948.31
553.61
847.75
853.48
818.77
744.75
988.24
743.39
537.34
651.50
562.14
853.55
702.21
709.22
553.31
488.13
571.54
713.87
594.62
846.15
991.53
938.69
1257.91
1096.00
1154.67
955.78
1171.14
477.94
862.16
722.96
903.90
897.57
964.29
1029.18
917.35
806.47
871.99
845.90
853.56
792.77
741.02
552.73
496.28
716.67
551.50
604.62
906.19
747.36
389.28
735.58
699.25
685.82
785.36
819.57
1141.93
1014.55
1037.33
817.62
428.99
633.73
643.78
1111.53
954.38
859.75
831.20
957.91
1070.87
761.17
820.63
808.16
854.42
849.16
741.91
800.01
829.53
496.00
718.39
886.18
779.82
664.72
996.25
804.61
883.07
939.20
1009.53
882.41
1184.68
849.70
957.67
899.71
989.90
829.62
792.68
467.97
1052.46
765.90
1032.41
850.33
960.75
1428.72
1046.05
635.63
686.33
859.45
741.85
720.85
805.18
889.05
448.10
844.18
754.41
2149.55
623.63
609.91
833.11
744.85
859.44
845.77
736.12
828.49
992.30
859.24
1028.75
989.78
1442.64
838.40
861.57
1242.63
1217.41
786.88
1196.00
766.68
1238.12
1274.44
1103.10
764.56
772.54
791.77
772.95
775.50
796.37
767.74
319.52
583.33
524.17
410.06
585.64
463.31
1711.88
813.98
666.10
779.59
875.33
913.63
1079.59
966.84
1063.42
914.32
1024.03
701.31
1060.33
844.86
905.39
842.09
1115.69
948.10
1218.37
961.74
966.30
958.72
967.21
957.09
830.88
1454.81
624.63
453.90
409.35
375.48
651.38
539.04
641.92
646.64
779.83
829.26
787.95
861.10
1172.33
779.01
1090.28
832.06
881.58
745.16
789.08
719.99
870.66
825.71
774.97
714.40
1311.13
715.54
930.76
787.45
743.49
775.26
861.69
972.17
941.07
916.76
365.53
531.18
440.44
841.39
498.99
458.79
637.46
701.13
757.00
832.23
950.22
856.38
1043.40
943.01
968.31
1918.22
1112.86
916.22
1074.55
733.31
924.30
977.14
1057.62
772.87
1304.34
976.09
858.24
2257.84
835.37
729.42
831.80
904.79
866.14
577.79
632.15
1169.66
560.72
540.59
525.37
805.91
690.32
725.62
703.25
737.02
776.88
874.83
972.57
859.90
866.22
850.81
668.25
624.86
606.03
680.60
1206.95
908.04
768.12
767.88
927.91
802.81
723.28
828.59
870.87
950.88
951.15
2037.00
925.03
604.87
791.64
791.05
804.68
572.24
704.54
694.61
610.16
711.00
726.89
720.95
1205.84
838.43
873.11
700.59
990.25
947.90
832.73
779.53
1068.60
1191.93
1030.75
1002.64
1679.55
800.01
1239.86
769.81
921.36
864.95
807.62
901.50
741.01
889.17
300.44
675.88
314.95
425.42
419.72
697.73
536.55
536.43
624.81
728.12
791.55
819.75
1026.55
806.29
911.04
1918.60
1032.50
647.34
819.13
623.88
832.57
947.60
782.24
786.91
893.09
758.45
932.69
664.02
1076.27
958.78
773.21
821.41
883.53
661.79
455.64
477.68
360.54
558.08
748.32
749.97
680.83
1133.44
741.02
827.46
930.16
937.41
1243.19
1191.46
1307.41
1245.42
977.77
411.78
1805.68
693.05
491.18
595.77
775.96
992.24
1102.31
1013.39
886.04
801.09
920.12
826.70
912.05
895.59
807.32
578.54
603.41
940.18
594.26
576.30
712.89
507.35
669.12
747.98
696.01
3536.76
1191.48
1126.31
1255.21
1051.22
1047.45
1015.73
923.76
727.72
903.44
645.57
720.24
970.50
1036.93
1151.03
1144.78
848.82
812.14
770.01
894.53
987.10
809.53
814.23
390.24
923.93
598.94
601.49
449.17
547.75
612.79
611.39
810.38
992.28
795.77
857.16
843.38
834.56
1141.63
989.01
1087.99
979.08
1051.20
741.22
743.28
751.68
606.63
613.64
972.05
915.14
1441.63
843.40
980.57
967.41
936.55
1024.75
1078.67
585.98
510.55
268.97
575.99
367.70
1011.94
1023.34
1062.44
809.70
782.66
885.96
861.68
892.80
933.17
980.13
961.96
950.74
908.52
2040.72
467.66
655.46
786.83
986.76
927.68
890.37
873.80
882.94
775.53
974.44
889.93
767.39
1082.95
957.30
859.52
612.77
756.57
518.09
624.92
488.05
688.02
698.51
684.82
990.48
923.74
971.93
953.06
992.59
1009.04
1039.63
1043.35
945.58
891.59
937.72
786.24
592.69
912.69
1346.56
594.87
986.23
782.72
770.34
829.78
910.09
724.83
1081.70
967.34
975.82
509.65
338.97
613.56
605.39
608.33
601.74
978.64
578.03
927.71
910.52
1085.01
899.74
993.29
920.94
1046.63
1145.73
1140.13
812.19
813.91
750.13
697.52
1093.79
831.54
773.76
1105.31
1035.29
970.18
1088.80
1171.85
928.52
1059.61
1112.23
975.03
683.93
495.52
537.35
933.53
414.09
692.76
672.53
701.04
787.03
823.74
991.81
892.44
900.29
887.72
1013.11
1128.12
1069.73
893.89
1034.36
981.53
764.60
937.64
620.69
835.52
1109.74
1110.74
932.29
779.91
972.35
958.30
1470.81
940.26
1057.07
940.46
541.86
399.85
688.36
493.61
789.06
691.80
700.46
973.65
4190.65
1062.69
1016.46
1204.98
1099.50
931.72
985.39
885.48
751.40
697.98
765.65
904.34
2043.34
790.47
1040.55
736.58
1165.93
1120.37
863.28
791.41
924.96
1087.97
1222.16
770.59
2851.05
533.44
609.21
493.55
618.66
521.65
842.08
526.44
680.88
807.36
944.28
788.16
980.61
1220.23
1062.50
1000.04
995.41
1043.44
713.13
948.39
432.42
1256.85
705.87
1007.04
953.79
1350.34
1039.94
1184.66
805.66
1070.88
1013.67
915.55
1042.25
962.72
1050.89
470.82
693.53
864.01
771.50
652.39
1211.00
821.51
911.70
802.04
867.00
857.15
1003.45
920.43
992.79
883.04
1110.02
851.06
1371.91
1244.07
644.20
1001.08
809.39
1034.49
1186.33
1371.49
1237.23
2721.71
1133.56
1172.69
1094.81
1073.49
1320.86
1128.96
567.29
677.57
762.36
707.50
944.74
1157.20
927.23
1016.05
1119.01
1168.91
1138.41
1190.07
1155.85
1177.42
999.78
1033.09
1674.49
1149.11
1009.42
1089.82
866.21
1311.41
673.45
902.34
936.09
1230.16
1013.12
962.58
1277.01
830.88
973.34
1174.07
935.56
885.79
840.69
973.76
999.43
967.74
769.79
903.31
2043.11
1032.79
1071.65
1137.56
971.93
1195.60
1129.66
1227.78
1082.15
1282.26
862.49
1052.57
881.78
931.93
645.89
774.66
802.86
1339.15
1068.99
1106.28
927.73
1010.28
941.24
1012.31
1410.14
972.74
769.47
702.01
1042.93
1102.45
1069.53
983.76
610.56
933.13
813.47
818.83
3727.77
1210.71
1222.56
1120.46
1118.60
1398.73
1303.16
1263.52
989.20
1197.55
1107.72
1119.19
1153.12
964.24
846.13
1096.29
1022.76
877.38
1130.82
940.44
1120.00
1135.15
1020.26
1689.06
650.59
863.26
964.52
1129.88
593.48
938.99
832.52
853.54
784.69
774.65
973.29
2490.35
1236.58
1305.40
1238.51
1205.88
1062.05
1111.09
1070.07
1052.73
680.72
1187.56
1673.21
1145.06
1348.90
1134.98
1091.49
1192.51
1254.12
1221.83
1087.32
1130.48
1117.76
894.69
764.39
879.21
500.39
496.66
445.26
719.07
662.85
864.10
804.64
994.25
939.70
1190.31
1398.19
1295.26
1059.34
1218.59
885.41
1192.91
1053.20
997.54
1346.55
959.66
667.34
2521.77
958.31
1051.84
827.10
889.32
906.85
883.02
917.74
950.19
780.34
799.71
497.42
1005.48
1195.17
743.96
673.75
569.61
814.13
794.55
873.12
1041.27
837.16
1132.11
854.00
1231.85
1451.49
1170.25
605.38
658.44
914.00
1047.06
699.17
1123.22
808.57
1323.11
965.71
985.75
938.45
1077.18
732.49
819.07
1176.18
1141.93
646.81
916.86
625.68
611.36
897.64
569.04
1347.19
767.51
836.50
756.58
873.78
1050.82
872.90
1185.33
1167.24
1250.15
999.07
1230.05
1298.22
1293.63
1272.26
1209.55
725.39
430.76
696.43
733.63
791.96
699.79
893.85
847.30
1071.32
990.01
995.39
533.21
466.24
653.98
1219.53
817.47
628.19
871.67
677.29
920.96
2203.41
1377.28
1043.38
1076.98
1217.08
1025.07
845.36
852.69
965.18
1019.11
854.94
899.27
2225.22
734.89
755.15
1028.99
814.20
825.26
841.56
629.23
967.54
893.19
984.84
954.33
947.59
669.45
785.69
309.63
518.87
391.27
803.39
562.56
1042.26
934.50
819.37
826.67
800.58
954.07
861.53
846.16
929.31
715.91
683.11
706.20
385.65
637.12
866.25
694.46
745.36
1062.84
3428.55
824.69
861.47
786.14
847.70
898.41
921.78
959.18
577.15
498.02
541.19
457.94
582.46
873.26
716.78
791.88
831.83
1223.84
1096.12
1293.86
941.34
1019.70
850.95
809.42
1101.49
1580.69
771.51
1239.24
839.73
1169.48
712.95
867.68
801.78
832.82
724.42
779.93
934.88
2121.11
732.84
940.67
810.82
637.80
653.07
529.16
421.78
553.17
299.61
828.99
606.43
1046.09
1142.90
841.21
904.54
1115.81
974.89
1234.78
942.84
1309.97
765.56
910.82
687.80
823.14
958.70
626.36
592.74
974.41
1038.10
1226.24
876.36
949.06
896.79
821.72
995.88
814.07
1511.79
458.76
287.68
713.29
1012.20
560.42
672.75
601.99
872.99
659.30
775.52
869.71
823.03
1024.86
991.53
1290.59
913.59
1203.95
984.12
1211.56
838.62
939.76
645.02
988.25
809.34
1242.07
784.50
560.98
962.96
693.91
935.45
821.09
1100.90
934.12
593.28
560.16
321.48
2088.90
805.78
867.13
487.03
1043.35
866.24
1127.70
1107.45
1294.04
961.66
1243.58
969.85
1649.40
1012.68
1079.79
732.97
1290.16
918.55
1203.58
872.06
971.35
972.82
995.12
808.87
812.52
887.33
842.11
823.26
723.91
1054.52
403.96
436.91
557.50
375.19
478.10
411.93
768.53
658.53
827.73
803.97
895.85
926.78
1066.60
1042.05
1053.75
801.13
1058.48
592.20
723.88
711.56
683.86
809.48
640.38
687.90
1035.13
839.71
1131.89
735.08
959.47
809.41
698.02
3321.91
1068.09
1073.55
750.82
615.00
782.96
407.35
363.43
384.12
662.69
621.85
900.94
1043.34
1499.82
1209.59
1205.97
809.87
725.86
957.50
921.13
1023.14
1259.28
1343.45
1401.27
865.42
1036.71
745.46
1173.69
879.47
791.82
1001.81
969.04
899.10
917.05
1030.73
804.29
678.58
557.57
625.47
261.69
518.10
273.47
745.54
527.85
779.26
751.34
689.67
1168.14
971.15
1478.38
1509.82
1404.98
1312.17
798.88
605.37
786.84
555.10
1292.40
1494.23
1945.05
1504.52
1710.78
724.18
641.06
1279.18
985.54
1406.34
871.12
1008.11
381.30
451.30
390.95
454.99
1206.51
1194.86
1838.42
1714.48
1979.29
1225.40
1201.95
877.54
654.58
833.21
789.65
2303.20
840.88
334.85
479.90
352.43
742.06
554.74
678.50
566.73
1068.03
852.69
687.86
616.47
707.67
870.43
769.03
856.11
752.67
710.26
322.61
719.87
363.20
701.15
692.31
737.71
538.63
1082.41
777.67
710.11
581.53
921.87
830.34
851.78
732.84
774.97
574.85
452.73
827.24
1891.73
911.55
707.16
1125.78
589.34
989.69
654.87
626.72
734.60
645.32
827.67
798.75
969.96
755.51
385.96
420.86
827.77
343.66
735.23
1129.01
1329.87
1468.25
1320.20
1146.45
800.16
871.43
783.46
560.19
783.81
850.51
954.24
1131.64
682.96
1221.79
625.60
698.33
600.05
1196.61
1097.06
995.89
896.74
735.70
772.57
802.25
902.87
749.95
871.11
432.99
614.14
503.27
619.11
617.68
768.95
914.52
661.00
683.69
733.26
680.18
798.32
708.20
718.63
801.06
3181.11
969.84
674.68
828.79
554.00
841.30
380.22
615.51
730.39
873.42
619.23
761.89
504.68
1178.20
873.49
844.88
999.29
1040.36
879.49
832.24
470.24
843.72
788.49
550.04
560.06
809.62
814.54
713.73
680.48
642.69
755.82
898.98
830.59
999.02
1034.32
931.87
532.08
344.31
1852.64
342.95
471.59
539.50
527.51
1031.41
850.32
773.56
569.31
692.87
918.69
759.21
969.17
967.46
359.13
408.73
441.39
861.80
487.64
825.76
812.70
422.01
868.65
782.49
818.67
648.25
867.96
855.45
928.24
914.99
838.65
1359.23
1368.20
1824.05
1474.03
1897.13
1148.26
797.36
833.54
599.52
972.61
955.17
1407.43
859.84
1007.32
902.43
875.61
431.38
455.70
464.80
666.29
1070.16
936.50
1172.98
552.16
811.63
734.13
983.10
958.32
1453.18
1222.48
1384.66
1785.91
1188.03
655.50
629.83
518.20
805.74
405.23
617.06
899.50
562.80
692.42
731.99
1989.26
666.04
991.98
797.12
828.68
752.79
752.21
619.59
449.57
469.33
394.81
408.88
434.64
740.01
786.93
636.21
632.39
932.56
941.52
986.68
679.74
991.12
962.77
918.57
714.62
715.67
706.88
1149.91
687.34
927.34
558.69
863.05
953.09
640.05
657.14
660.66
898.77
728.19
2206.69
623.63
559.65
489.21
870.81
676.65
612.89
885.12
900.30
886.83
727.95
1031.90
674.57
908.14
740.34
686.81
763.23
892.98
901.94
482.25
631.58
511.42
505.19
745.51
613.87
650.95
693.88
817.22
905.05
667.60
890.03
659.13
798.34
799.83
792.60
841.99
490.69
583.14
2733.83
521.58
390.03
484.49
639.46
682.37
828.14
749.49
740.15
809.14
919.36
884.51
843.26
1474.51
635.49
652.59
531.54
929.11
748.75
1194.61
819.13
1115.28
893.30
1215.54
785.44
1706.28
1482.78
1397.66
947.66
773.12
853.65
373.82
489.14
305.22
427.03
363.85
543.66
1934.94
922.65
954.98
985.54
828.38
856.15
863.01
1014.86
808.31
797.75
684.00
434.84
418.61
809.64
887.93
635.14
657.29
494.90
711.13
763.27
543.00
754.22
744.47
742.05
764.94
919.03
1023.15
570.10
761.35
837.83
846.07
602.82
607.99
395.47
582.40
902.44
882.98
688.89
700.77
939.34
771.57
854.64
717.45
626.18
858.54
617.13
911.34
601.97
864.73
653.71
892.65
1943.48
1163.00
920.44
915.61
881.13
923.39
679.38
590.13
1182.05
827.04
871.32
228.19
3101.47
254.26
394.61
507.94
617.81
778.31
784.80
1119.87
891.17
970.05
865.31
801.43
706.27
934.19
805.61
929.39
840.46
671.29
357.59
749.74
826.15
728.91
954.82
1014.05
704.25
655.70
927.59
999.21
843.91
852.19
940.64
437.04
631.96
422.79
309.40
651.66
452.76
798.86
2843.74
826.69
821.74
1024.72
887.83
1001.70
880.10
786.36
836.79
512.53
507.96
548.27
818.72
1186.28
685.03
786.52
736.37
883.47
758.53
796.40
536.66
637.80
720.40
715.76
798.83
630.48
617.49
428.11
587.03
446.25
554.83
759.43
744.18
635.20
613.27
802.54
625.72
714.17
2747.10
1002.37
833.74
991.18
823.35
919.37
766.06
751.72
465.86
1032.13
1073.49
987.75
947.25
931.12
834.13
468.31
758.22
622.32
827.62
600.06
797.81
691.91
486.32
522.20
365.54
978.50
973.68
1016.34
705.19
541.05
843.33
637.90
783.05
706.98
951.14
917.25
867.52
1137.72
1919.29
1072.57
1100.56
1039.50
804.37
687.99
646.09
709.32
783.48
843.81
552.32
572.30
2886.62
816.87
924.71
962.70
943.08
871.52
463.84
504.92
514.96
370.68
466.88
556.56
797.59
1136.24
721.78
574.56
833.30
911.35
876.50
1026.94
1052.17
1214.73
975.83
1156.61
778.47
1186.95
536.72
354.67
688.01
599.83
746.17
674.58
746.28
708.82
934.64
785.54
986.56
920.04
647.75
555.95
278.04
1011.42
1022.63
1426.22
1219.77
916.66
755.09
881.65
1387.83
1034.95
1125.70
722.68
732.19
1437.30
1530.12
2041.60
1464.58
1527.43
712.22
424.41
638.64
1811.05
924.12
697.81
852.63
535.52
822.11
754.40
750.25
725.60
709.78
713.19
456.86
523.13
607.32
516.42
261.62
486.94
474.41
601.22
751.70
780.10
688.40
966.80
893.18
1063.43
870.49
1188.73
721.40
915.90
695.15
846.17
513.64
775.10
637.95
849.11
888.37
1020.55
671.00
977.03
863.26
820.19
794.67
621.53
792.49
582.77
385.76
578.45
632.40
423.96
535.35
525.56
656.29
625.26
817.54
612.86
778.62
738.95
693.52
849.97
822.43
805.68
637.15
714.66
2495.32
760.27
529.21
784.08
628.27
872.98
790.51
751.41
685.15
812.83
718.51
746.19
792.56
1296.51
623.40
654.19
585.15
663.96
261.54
423.78
483.22
511.20
749.64
812.97
824.16
764.31
919.33
1169.95
900.25
1093.22
949.21
844.79
621.32
1294.84
1286.36
1435.42
983.44
951.74
738.48
776.89
802.20
464.07
664.74
635.81
982.41
565.22
856.70
673.82
744.68
373.23
1640.15
316.78
369.45
580.17
651.28
881.91
1015.97
1043.49
864.94
1149.64
954.18
1028.47
813.14
806.39
686.03
290.19
642.92
266.22
320.37
720.82
859.65
663.22
715.48
747.25
588.77
690.44
976.48
812.33
808.86
849.10
885.50
764.28
561.34
448.28
247.14
570.90
584.57
510.74
1585.80
785.84
768.29
1075.64
1072.48
1304.04
1057.95
1021.24
766.89
868.54
629.48
807.96
1585.02
1302.61
1036.24
1189.68
682.79
921.31
813.59
561.50
1136.02
927.80
1062.91
729.22
1764.24
792.27
526.41
559.42
615.63
562.00
387.29
676.66
586.27
393.08
901.37
636.35
678.36
850.47
974.69
1076.14
915.54
1031.39
1028.57
783.60
511.47
901.61
449.44
916.10
540.63
711.19
653.25
758.16
834.13
603.66
661.46
709.55
782.93
952.93
984.48
1206.92
768.83
833.97
985.86
744.81
583.87
636.91
553.36
536.04
927.43
642.86
844.90
560.52
699.34
655.60
826.28
881.28
578.84
708.36
656.00
1013.60
977.29
1087.27
928.23
1133.36
1130.70
998.63
729.99
1313.67
953.10
697.97
821.57
620.34
704.84
347.54
489.09
403.20
398.52
375.01
619.28
472.43
490.85
885.87
939.72
1077.05
1041.21
1205.35
1057.93
1057.70
1090.59
1073.97
753.36
482.04
635.41
832.44
686.14
927.29
672.95
1047.92
800.00
872.89
629.72
707.47
858.53
610.90
869.19
866.66
488.37
377.28
169.22
552.22
655.15
357.19
453.73
437.08
689.51
561.07
636.44
809.17
789.23
811.50
728.81
870.19
729.31
576.52
272.86
634.01
573.29
796.50
560.29
997.14
976.81
1036.32
712.82
701.77
837.40
784.67
828.42
722.21
777.84
634.63
485.33
750.13
1123.06
519.97
548.91
532.72
674.62
818.25
767.18
735.45
788.19
849.40
820.42
874.15
888.50
999.73
830.32
988.53
705.90
958.39
754.39
602.41
520.44
719.67
1222.14
1143.48
864.74
1497.30
768.43
679.83
1003.25
759.51
1050.67
475.08
425.53
248.10
473.85
248.41
629.74
479.50
503.65
899.31
764.80
1125.76
999.04
1178.06
900.51
1084.90
1031.45
1118.75
556.58
373.64
549.87
666.77
485.04
624.09
504.48
696.28
783.61
680.34
770.17
778.68
977.50
985.80
1910.29
795.56
676.46
528.75
347.48
828.15
692.61
622.31
709.23
582.43
816.30
705.32
895.94
1127.69
1030.42
1047.35
828.91
1195.47
948.70
773.15
429.03
846.62
892.59
728.12
598.68
2072.56
913.41
732.87
548.36
619.97
689.47
795.66
912.30
653.62
916.16
678.95
315.57
413.32
690.06
821.57
460.03
622.20
734.54
562.66
690.58
687.13
653.16
758.33
786.90
818.18
757.37
1036.49
1028.15
1163.18
897.51
1183.43
1046.07
821.69
789.32
380.15
944.44
535.79
772.25
649.44
653.35
617.85
869.74
923.60
967.77
941.51
846.16
854.77
644.31
658.70
463.97
647.11
380.11
645.16
913.90
512.47
685.69
918.48
904.10
1083.16
973.25
849.28
735.89
629.14
1784.26
901.25
945.91
906.93
695.12
1050.11
857.45
989.14
744.85
1012.35
846.00
834.24
925.24
1174.96
661.74
392.49
586.31
316.28
610.80
531.82
611.99
558.12
633.01
753.38
600.00
686.44
807.30
966.10
974.21
1215.66
1140.83
1028.74
880.34
1145.61
755.40
913.28
706.93
1076.66
955.86
1154.30
1050.71
874.20
796.93
853.65
646.43
752.67
1039.72
716.93
761.55
342.66
1057.02
437.18
591.77
631.82
525.33
733.20
718.33
715.08
845.11
943.40
934.55
997.93
951.70
987.93
759.40
482.68
586.37
903.01
888.44
880.68
1063.50
831.50
759.04
885.55
718.94
542.62
813.96
768.78
955.57
988.14
697.21
549.16
618.31
284.49
563.21
343.56
712.26
550.36
1507.67
776.33
787.83
838.77
973.76
950.31
838.56
751.04
839.37
954.69
804.41
894.28
801.08
1276.79
818.41
799.92
1025.65
1433.89
1566.62
1775.15
1153.18
1027.35
799.23
629.70
1132.08
1163.00
1201.39
690.82
672.56
314.31
544.54
538.11
836.20
503.46
924.17
790.34
839.49
906.02
960.38
1159.44
1161.62
1145.12
1030.18
1135.89
853.97
881.55
649.36
725.10
2532.15
925.58
893.83
861.11
816.17
593.76
709.17
716.61
803.65
641.06
772.89
806.70
603.52
855.70
401.43
361.92
719.35
604.12
431.37
601.03
724.81
719.11
816.45
1108.25
1488.29
2077.58
1979.35
2030.62
1151.86
740.96
792.48
325.93
458.14
628.91
604.37
525.91
832.28
863.30
751.40
856.78
1000.47
953.11
1087.36
821.58
854.50
462.26
298.11
464.68
368.59
628.37
1506.44
654.28
369.67
646.44
829.65
521.64
724.79
1071.19
887.09
899.99
776.05
981.56
794.41
1108.56
1138.78
1470.13
1408.41
1236.97
457.54
764.23
974.06
1132.25
1154.59
1117.70
2792.28
714.79
915.49
920.73
1400.85
1536.49
963.53
681.51
755.64
379.94
467.50
605.53
1764.82
696.27
580.30
821.33
1236.25
1198.60
945.87
1092.74
985.93
991.04
816.30
1256.41
2082.89
899.90
828.87
711.44
446.83
545.88
804.25
644.52
863.96
1008.16
819.90
649.01
915.07
1102.65
427.85
633.14
695.92
497.12
570.08
542.25
748.08
685.24
847.38
833.13
909.90
1897.86
906.94
1051.33
868.97
1028.12
705.48
622.66
741.77
855.74
664.72
891.08
689.01
495.33
950.99
611.17
898.65
793.96
858.59
1067.89
1026.48
1046.08
961.19
1119.50
816.29
1016.15
1173.32
343.07
518.36
851.86
638.43
753.27
1102.60
608.50
774.41
1102.60
839.42
771.54
1901.17
1143.09
649.75
639.56
572.18
310.21
530.09
645.29
759.66
772.28
1099.42
1098.68
897.94
1031.89
779.59
1225.92
939.47
840.77
839.22
802.09
527.01
386.17
507.42
648.50
758.98
1004.81
1115.88
1176.13
819.40
548.31
903.15
850.38
723.41
1013.10
820.92
638.04
551.29
1641.99
385.37
202.74
688.39
1015.75
1043.13
1223.05
885.58
630.26
737.50
696.55
898.96
829.29
942.03
941.17
612.97
965.98
371.80
396.57
369.63
260.03
767.73
892.69
677.37
686.14
2137.93
937.58
856.30
1036.92
1059.95
1054.05
710.70
562.33
1013.44
892.57
655.89
968.23
777.95
1474.78
1172.06
1204.83
728.39
608.60
862.31
845.97
862.82
938.98
1066.47
485.89
373.56
835.97
631.65
301.45
820.96
479.07
457.04
741.14
654.59
736.82
870.56
1069.35
933.72
803.54
1138.95
1253.28
937.03
1056.17
902.44
1335.20
983.98
967.79
644.79
643.20
1042.97
1011.28
899.78
682.50
969.19
957.86
848.40
821.42
910.19
605.94
287.05
279.53
795.09
311.81
1654.83
660.32
688.90
947.21
878.48
1006.96
1132.41
1310.23
1287.41
1222.50
1247.09
1224.67
1367.59
694.61
596.09
350.16
415.85
551.33
517.77
771.39
709.40
510.42
776.07
659.73
2128.20
901.12
886.07
1122.50
610.53
728.73
636.93
337.78
603.18
379.53
715.77
918.25
661.71
799.80
686.26
757.72
767.94
773.74
844.31
868.69
684.94
301.70
1030.48
1111.96
778.42
1466.61
615.93
649.21
841.38
910.64
803.40
766.98
1134.83
928.55
891.45
896.70
783.34
389.11
642.70
799.57
267.64
720.89
705.26
839.75
666.58
665.69
809.47
1083.44
1010.89
1048.45
1320.46
528.99
1303.02
1291.68
877.21
776.29
552.86
489.96
359.44
582.04
728.49
939.99
1788.46
982.28
645.04
790.83
732.42
886.16
736.56
764.18
817.68
309.51
586.65
389.50
486.76
571.76
453.49
565.99
659.51
720.71
761.88
465.11
1416.18
2374.91
2805.08
3315.33
2827.83
2321.23
731.25
782.65
2511.05
2562.27
1108.51
454.00
383.76
717.78
713.07
465.43
748.90
724.14
872.23
719.65
962.19
874.51
565.25
893.96
756.36
759.75
755.52
952.91
688.58
497.81
504.61
871.96
713.43
917.52
884.41
851.86
929.25
1019.51
770.41
367.42
936.49
697.00
1496.50
653.02
560.13
808.45
699.60
841.65
656.77
629.84
1085.33
1168.55
982.10
1102.01
1009.27
1275.54
1341.83
1674.76
568.34
557.56
583.45
595.93
1161.16
1258.15
1228.64
707.51
1227.62
651.78
825.64
846.85
1028.06
1264.17
748.17
676.66
802.52
706.55
610.64
718.36
1513.95
901.96
1426.62
1239.39
676.08
757.77
851.06
654.76
985.86
820.98
1886.20
1902.84
1984.68
980.53
967.24
1404.32
1188.07
1219.75
715.68
574.48
1180.56
1587.23
720.69
729.42
871.11
931.65
1013.84
1455.14
1219.50
1182.89
326.27
312.53
990.59
1128.79
755.93
946.38
973.46
955.06
809.80
873.20
736.25
760.48
806.29
697.05
535.65
948.19
963.92
584.94
1459.32
413.28
679.92
470.77
968.60
1167.16
1330.32
1356.35
1143.29
1056.61
785.77
915.16
1962.21
1005.11
935.54
1120.53
854.34
434.37
671.45
861.64
664.39
826.06
686.30
717.37
919.21
1000.73
919.78
801.23
848.99
534.96
367.46
517.33
463.29
803.55
1091.25
803.48
563.76
1756.13
664.51
552.32
682.91
671.01
764.25
850.33
1217.24
1445.13
1324.41
1293.36
1057.97
1746.39
594.41
266.50
760.67
821.30
623.18
761.12
575.58
956.02
940.11
899.88
911.92
784.35
733.73
545.33
756.65
618.62
589.59
725.51
696.21
888.02
907.34
831.12
726.53
519.92
1848.03
589.12
725.10
895.92
1023.10
592.95
677.85
228.57
356.61
266.67
621.75
902.39
974.16
1395.22
973.91
945.02
839.20
798.87
971.29
638.55
832.72
702.48
537.52
428.29
382.74
1556.60
386.37
617.45
918.85
1429.84
1959.26
1719.52
880.76
587.64
1050.21
972.80
1226.79
2037.93
1151.90
423.36
630.07
1020.92
770.90
756.67
919.49
1380.99
1416.56
1144.89
721.53
803.95
854.12
812.00
819.64
700.65
848.74
565.88
618.25
819.44
896.96
754.47
893.79
960.76
825.38
825.95
805.40
676.32
1113.02
870.92
781.36
954.08
778.99
954.72
626.96
606.33
1509.20
692.79
494.98
1004.42
834.33
1112.47
1160.98
1190.53
640.50
638.59
805.97
771.29
1869.85
692.68
925.42
509.16
599.75
480.29
409.04
391.10
347.96
459.98
791.09
696.59
747.11
1207.42
1348.56
2130.75
2003.35
2073.86
1773.26
1843.02
1618.63
1494.16
869.58
394.36
924.41
504.32
433.93
791.28
1122.28
1069.30
799.81
666.13
820.36
851.12
643.68
849.78
1653.83
581.49
554.60
634.60
811.38
520.91
543.25
613.74
716.30
797.10
644.94
630.22
713.77
911.64
730.52
659.62
861.20
429.21
597.97
1089.98
1111.51
1485.78
1265.40
1220.67
1291.54
1317.60
728.23
547.23
817.67
969.88
919.76
690.09
970.51
550.18
385.08
194.01
432.25
906.47
739.17
1252.96
1514.33
2001.36
2003.26
1915.14
1215.94
1144.81
748.96
781.00
781.09
659.34
519.44
610.97
750.54
363.31
475.06
654.68
577.02
604.92
914.06
780.27
835.69
1834.03
914.61
944.29
833.63
780.73
885.35
358.75
397.78
289.06
469.34
473.51
508.51
511.30
1175.67
799.58
935.95
937.01
1010.24
931.96
849.35
1072.41
856.83
640.59
489.91
455.89
3028.51
474.89
674.80
1035.79
986.60
1285.13
972.75
733.63
667.64
781.30
772.86
765.55
868.53
881.60
395.93
348.39
272.45
369.92
283.50
585.00
760.06
596.94
1058.21
1025.93
1066.86
896.82
786.08
742.27
883.28
760.49
977.74
1145.51
533.72
722.34
627.29
596.25
687.19
350.71
1844.32
932.69
620.62
635.39
834.71
916.12
837.82
892.99
967.17
911.03
659.35
846.11
774.72
1178.62
1144.07
884.60
503.84
845.48
1021.50
704.12
715.96
916.06
801.70
928.70
793.62
2179.76
1086.43
1230.07
1230.41
946.27
637.67
408.71
360.39
507.53
834.15
709.27
585.79
652.53
810.75
840.05
774.83
780.15
877.29
645.75
647.13
1026.40
921.35
1132.29
767.05
623.50
2043.39
698.89
842.15
689.74
784.05
1064.42
851.47
1026.21
937.25
793.92
490.83
783.85
484.53
582.86
381.52
674.29
531.85
606.62
852.21
706.49
731.10
831.36
791.48
808.95
760.32
853.42
597.80
505.71
735.19
599.63
728.03
922.16
951.82
973.50
1175.76
738.32
739.80
832.47
1310.31
825.22
813.35
1038.50
1085.48
983.03
788.04
814.63
576.35
493.60
528.14
515.33
975.81
1169.04
902.49
845.32
904.41
933.45
744.57
756.79
790.77
627.11
549.16
364.17
419.82
1610.65
579.10
934.93
616.44
855.75
823.16
610.62
745.09
617.08
938.07
799.08
800.77
981.31
779.05
916.09
1081.73
1117.80
966.14
1274.64
944.79
909.67
1077.25
1107.31
833.86
971.32
1397.19
914.28
898.76
803.41
930.36
392.04
563.75
539.09
281.01
495.90
735.43
358.85
809.86
728.54
722.37
666.16
883.04
1071.57
938.70
984.29
776.95
864.51
865.55
880.66
728.46
1713.56
255.22
735.30
724.86
1244.31
1886.73
2159.05
1442.41
778.99
740.04
877.00
868.21
1412.49
674.54
390.86
575.97
728.25
546.94
556.15
823.44
371.29
731.05
949.59
962.05
1051.69
1241.88
1204.35
1329.70
1534.78
1013.49
895.05
1006.38
844.27
1075.87
772.67
782.03
1740.58
959.99
763.71
848.40
527.80
812.94
833.76
651.68
946.22
936.96
847.97
712.29
772.33
511.64
405.39
685.61
984.08
566.57
754.28
980.31
771.11
803.62
1015.96
919.34
1008.92
858.00
1059.13
839.67
774.18
817.67
811.10
863.11
701.53
502.54
800.79
847.70
1040.48
670.79
2268.14
696.58
849.68
750.82
830.54
788.20
425.72
291.85
481.97
347.57
668.61
672.80
811.33
882.34
1000.44
865.80
710.01
760.07
852.79
874.20
900.84
817.25
921.49
1045.98
886.32
380.05
656.20
865.51
554.18
639.51
605.74
846.57
693.97
959.72
1173.97
976.73
977.11
989.68
1916.79
758.58
899.49
783.57
468.24
339.53
819.72
480.63
544.63
687.42
1114.39
1118.56
1476.68
2170.13
2142.13
1479.98
1060.51
849.72
547.73
372.09
522.58
691.78
370.21
554.87
624.96
929.45
843.75
765.39
700.68
1003.44
801.10
932.07
950.32
1002.41
666.29
625.14
392.04
1608.14
328.74
660.83
550.04
607.35
693.35
903.50
984.33
868.13
1108.58
864.95
790.14
974.02
1044.64
796.33
803.88
708.06
856.69
888.39
620.12
447.81
666.82
1013.47
801.21
625.31
920.73
747.50
810.33
829.41
822.04
830.26
770.29
640.35
272.67
587.37
533.38
557.71
448.15
1811.69
798.17
761.10
1042.99
1824.51
2423.99
1819.86
1029.93
897.99
764.58
418.01
533.37
1563.97
492.55
885.02
1032.16
781.73
1473.51
1534.19
1477.66
1207.47
1139.35
918.64
647.72
953.24
840.50
935.27
657.33
520.94
406.86
299.57
361.92
943.09
340.43
917.15
718.89
579.43
1175.50
1071.90
1018.53
993.42
1092.21
807.19
578.99
870.92
701.71
570.77
1217.01
1126.39
1452.76
1440.56
1452.19
1404.46
1340.92
1269.53
823.16
993.31
935.72
1031.24
694.56
1189.59
792.77
1173.18
915.68
839.78
624.33
577.53
817.25
772.67
957.35
1011.47
1304.28
2125.81
1575.00
1858.90
1421.78
1023.30
405.03
769.92
1100.43
889.98
551.17
697.36
1191.78
2356.74
2559.07
1805.85
1330.34
857.77
901.05
1267.38
1026.13
1447.61
1302.53
837.55
1475.82
432.42
324.38
466.52
585.83
780.09
776.22
808.17
715.07
1134.22
1205.57
1021.02
2331.95
907.46
902.00
517.13
946.17
367.69
655.70
1235.48
1170.75
938.17
1068.32
985.26
2365.23
662.71
1033.08
985.01
947.22
1091.97
906.37
400.14
351.95
991.59
682.92
522.77
728.06
812.55
430.88
850.93
711.44
645.90
874.29
1055.19
1104.57
1016.51
1069.30
1003.73
871.92
1003.19
809.83
595.77
579.78
502.50
698.39
791.29
988.13
817.10
566.36
860.47
858.38
937.24
1002.95
870.99
709.86
527.84
692.45
377.00
488.22
946.44
1165.24
859.62
1203.07
937.07
2446.69
1017.69
1147.54
1074.14
890.15
1020.65
1258.92
876.79
1016.30
722.89
612.51
889.04
1168.66
738.96
382.19
827.39
926.05
815.16
1045.10
1024.23
1041.48
1219.11
1866.08
1204.65
1479.14
701.76
491.43
766.63
527.57
705.24
655.86
1000.47
758.95
1009.67
708.49
771.48
3147.91
735.54
865.33
970.83
862.62
905.79
737.89
378.98
531.73
685.47
895.45
854.99
884.38
1246.10
1014.83
1055.02
1020.60
960.10
969.20
913.33
907.05
839.33
540.17
640.23
422.06
3248.50
427.34
845.02
533.11
916.13
639.48
850.46
883.91
770.91
1050.36
747.55
877.20
1004.69
988.43
798.78
480.16
488.02
579.63
796.82
868.42
875.50
1014.46
885.17
539.40
837.58
863.46
1074.37
826.40
868.29
645.48
387.97
506.47
579.26
401.22
371.21
442.31
701.90
840.57
3314.66
775.47
681.13
765.30
809.87
818.56
853.70
1016.25
686.41
881.87
412.83
1048.99
585.41
1494.34
780.19
787.42
1001.63
1153.47
904.24
699.71
869.42
777.54
761.69
853.31
796.78
1917.11
597.13
728.78
699.57
936.98
789.06
767.90
536.98
767.53
940.86
742.14
856.11
776.67
1233.30
912.96
1168.24
1134.52
976.97
986.37
1206.69
1079.34
806.67
839.50
918.67
1166.56
991.56
837.99
774.04
830.66
853.13
954.12
925.43
1110.56
920.24
713.24
1026.30
824.09
1438.22
605.39
777.61
982.82
1049.96
921.75
940.09
873.96
936.50
1010.19
863.45
763.01
3311.50
627.04
526.90
833.72
750.80
557.63
488.78
770.45
746.82
907.20
775.78
658.14
839.37
1436.85
697.98
913.14
943.85
835.90
514.92
713.76
853.83
602.05
577.57
968.85
891.92
1107.23
897.38
898.97
716.35
852.49
799.00
701.36
846.44
689.11
637.31
628.01
797.89
378.16
1672.47
918.29
1211.47
2087.39
1851.22
1432.20
671.21
732.32
1397.88
1431.23
1302.52
1221.05
762.21
670.44
732.39
619.82
668.92
318.43
456.95
706.54
395.44
843.48
988.02
1029.56
1424.28
1296.92
1067.77
858.66
850.14
884.31
627.28
365.08
391.49
712.37
712.66
790.64
2967.01
1100.66
1162.27
1312.49
881.71
1162.62
936.12
1127.42
1011.08
1048.15
904.27
544.12
1523.77
851.72
813.17
806.82
837.72
309.17
815.17
733.24
792.71
709.58
775.95
751.44
3213.72
859.97
982.86
639.10
732.01
947.21
627.75
791.00
663.99
932.25
980.42
870.37
1037.20
1110.34
866.94
780.53
893.14
1060.30
959.64
1114.21
646.63
616.21
681.28
335.51
455.56
1975.14
481.05
873.18
877.08
923.12
1021.91
1110.31
906.79
853.19
879.69
866.56
507.03
849.46
818.96
999.84
813.41
667.12
1053.67
854.46
822.18
859.71
646.10
631.82
821.06
613.18
2017.20
756.79
927.24
347.40
480.39
640.02
436.23
392.28
694.04
793.87
749.16
839.41
686.82
847.85
873.71
829.08
770.57
898.53
884.57
1088.69
743.84
664.63
600.36
915.50
629.66
2694.85
1210.51
1369.24
1025.71
725.76
739.47
754.86
832.17
743.83
827.30
864.85
581.56
388.52
753.31
770.86
604.82
447.77
676.11
311.51
981.19
907.44
793.32
707.76
1005.27
1091.38
3067.84
1035.31
1030.58
924.16
634.19
1014.85
896.84
1046.05
1035.21
1244.06
1177.85
1204.62
2288.56
770.12
871.85
798.73
891.32
921.96
1044.41
898.18
477.57
722.91
402.10
472.77
3039.79
717.19
894.52
971.30
747.15
938.77
937.62
942.57
917.72
865.89
870.93
889.18
709.67
913.59
413.72
817.12
1390.97
1034.52
971.61
914.90
783.44
600.32
675.74
805.39
810.20
752.65
1035.39
1106.48
1064.41
700.05
497.96
668.56
947.29
1169.61
628.27
486.22
597.22
657.50
1174.20
730.83
760.77
994.89
873.93
1208.05
1204.76
1517.21
1359.95
1360.15
1005.13
743.54
783.77
674.75
898.57
813.48
877.22
801.95
848.67
763.99
1104.26
979.06
1086.36
871.28
1321.79
365.87
208.18
822.68
688.64
449.83
904.79
627.88
711.15
647.13
782.67
1087.72
1225.08
1212.86
1094.36
1087.60
1091.11
641.65
667.26
589.30
312.78
644.09
506.64
838.20
2970.29
1029.68
1007.81
733.19
924.62
914.18
805.77
936.05
954.57
933.58
362.17
465.18
440.69
579.92
770.64
713.38
709.66
466.72
739.26
812.91
833.39
988.01
1011.74
1027.91
1073.33
1122.38
757.59
873.44
698.12
778.86
904.91
613.94
1141.93
643.21
996.57
1147.58
761.98
869.11
986.01
867.70
777.65
930.83
908.48
635.46
249.60
958.10
732.71
841.74
1094.46
735.57
3337.99
928.26
785.24
773.33
728.26
998.75
755.31
998.15
900.17
943.43
738.63
670.23
491.67
975.38
720.79
801.72
682.75
1105.82
784.28
884.07
808.18
861.77
960.05
992.50
858.22
896.50
1046.95
564.06
624.41
313.56
403.05
608.36
747.72
567.44
950.13
782.76
866.17
859.12
990.00
1197.53
975.75
1177.27
749.89
579.67
251.10
828.29
889.05
753.94
696.74
754.80
985.98
1634.75
1140.17
665.83
817.19
933.49
998.08
921.83
1069.75
1021.86
648.26
731.55
651.20
2101.59
561.13
810.46
528.65
649.39
1030.61
821.75
597.87
791.57
925.03
751.71
978.95
1000.95
1058.74
1014.25
774.16
879.90
826.64
971.23
745.65
717.09
869.34
897.39
862.15
1079.96
1107.41
1268.63
883.84
1037.19
909.76
594.72
551.50
353.49
942.84
609.37
974.91
587.58
646.56
1475.03
876.22
1107.95
1304.79
1168.24
984.06
884.20
1085.70
1156.56
817.26
1179.88
1198.29
1883.17
1742.93
1653.08
1362.21
1288.41
953.98
911.15
847.32
927.27
1063.43
876.54
1324.32
1270.68
1386.81
1635.71
1774.76
1312.62
725.63
492.12
678.55
517.71
883.56
3055.42
934.73
1121.10
1154.41
1092.80
979.90
1215.97
857.97
947.08
883.98
963.98
946.23
2107.53
925.26
627.43
603.90
1161.03
1078.30
934.19
888.89
1103.09
974.64
713.47
824.47
2002.03
578.78
384.40
562.04
846.90
676.65
665.10
488.70
626.94
628.00
568.35
699.72
745.43
1027.93
782.79
740.15
731.55
611.32
464.10
561.81
955.68
655.19
479.73
713.10
570.38
820.60
1166.87
896.51
1013.85
1132.18
887.22
834.33
1009.27
1023.13
561.04
503.51
834.17
755.69
1004.17
510.47
656.08
534.65
855.80
841.96
736.27
765.36
846.58
823.71
824.26
954.57
1163.33
916.66
1043.53
871.74
880.54
1250.76
881.64
687.96
1038.95
710.84
780.24
703.27
809.90
1243.75
822.15
867.01
883.53
720.17
