737
502
415
586
741
438
907
592
784
711
721
848
944
1849
974
668
889
576
420
553
431
849
839
815
827
935
1073
713
778
953
1040
1143
1146
891
621
919
790
753
799
739
912
554
765
886
868
908
854
816
882
849
845
838
877
681
619
395
511
412
1003
836
861
677
803
1815
894
767
749
807
966
1045
923
1104
541
655
560
2363
752
624
702
777
965
814
789
759
560
881
525
322
1089
540
657
831
624
714
614
848
1225
1167
1177
912
2717
408
631
626
688
275
642
710
633
656
860
900
1217
1211
973
810
880
530
582
621
629
400
925
626
571
1423
817
773
836
881
785
823
803
817
560
871
492
338
573
857
673
629
725
845
652
688
706
722
876
827
1744
977
1014
976
998
747
821
784
1186
1182
1402
1168
2673
1038
998
839
1008
674
615
598
681
710
496
688
2731
963
802
804
724
875
985
881
927
1115
795
742
1148
800
823
656
688
753
911
875
909
759
725
735
877
1725
886
335
354
544
340
271
592
431
869
710
860
695
891
687
879
767
867
640
721
684
1059
784
908
650
1489
795
879
721
610
706
830
720
779
733
592
210
528
915
551
566
875
667
858
785
816
695
731
722
812
848
1045
475
486
351
441
700
779
697
1119
1123
1054
757
1183
818
900
871
837
759
377
608
605
579
848
921
1648
525
843
742
615
794
769
991
969
917
859
769
695
1010
745
525
943
1136
1425
1426
995
716
848
862
859
1413
1008
459
509
583
845
430
807
489
793
751
801
3237
882
785
844
816
894
594
667
661
1069
709
662
761
886
742
801
813
775
795
972
784
953
982
604
373
593
482
614
481
695
633
757
831
679
647
697
784
715
3213
897
651
690
498
495
801
613
553
821
623
674
541
1398
838
835
730
838
778
571
679
464
669
689
592
664
783
753
772
906
1037
1131
967
944
814
722
528
1195
1803
1413
907
522
425
749
771
507
715
811
784
906
1902
874
454
385
624
624
391
527
609
765
976
814
689
867
885
734
803
918
722
730
794
759
576
690
667
608
842
908
829
885
929
907
784
826
752
528
710
692
2971
734
393
400
465
759
753
522
627
720
771
1039
1127
1395
969
829
765
723
979
982
643
1021
865
832
535
1323
743
927
816
951
624
463
322
528
527
690
877
707
1073
722
594
628
759
768
859
953
941
775
395
722
1920
815
555
734
721
814
879
627
797
800
784
832
863
1137
560
654
457
851
336
433
671
655
745
720
619
1427
989
1088
797
970
795
847
1098
784
641
963
899
950
1136
1112
683
634
770
820
989
800
855
720
358
561
1259
491
421
975
833
810
810
786
804
878
848
885
975
1198
728
975
1308
967
1023
710
546
747
730
785
765
1101
838
866
867
869
645
532
638
711
585
410
389
1343
1040
1014
766
816
885
848
822
783
836
804
605
711
683
707
558
672
636
960
867
781
769
975
895
994
3009
1103
595
378
471
711
330
624
714
606
777
755
655
1278
1245
1308
1168
944
750
722
750
801
529
374
371
743
1050
1121
967
878
892
823
802
921
816
449
463
2637
449
425
603
845
411
860
709
894
751
912
761
884
976
1022
896
815
330
720
784
616
496
909
752
914
3111
925
943
1088
873
1072
694
649
448
702
813
605
833
628
763
777
711
763
897
1006
881
1033
1017
753
370
1136
667
748
574
883
625
1073
982
917
907
1140
896
1387
943
847
596
446
522
401
347
662
762
988
970
851
671
1003
1032
1138
943
1167
881
686
443
796
894
1205
1260
899
902
688
944
807
899
867
681
880
892
467
1126
709
555
843
446
624
602
658
783
895
813
973
931
976
993
847
641
461
567
912
605
784
626
1087
829
2719
912
880
905
899
823
941
656
383
397
429
499
528
690
640
858
755
931
896
880
943
917
867
865
496
599
361
1040
891
511
752
673
1074
884
782
747
911
906
1410
1086
1235
1046
707
575
384
487
417
447
909
797
1195
584
677
841
946
1148
1397
1670
1812
1446
1404
846
502
656
914
952
929
865
898
795
842
727
949
834
2821
769
667
315
667
459
853
433
801
667
905
704
943
1414
1505
1392
1403
918
649
546
624
379
592
773
610
909
688
784
1023
853
880
740
868
865
347
611
365
3163
895
882
710
735
890
784
812
961
937
959
875
880
1392
787
448
547
613
511
1186
941
1017
738
595
638
2949
874
762
886
917
529
683
507
848
837
900
754
777
751
595
654
620
750
880
688
895
622
621
469
921
818
719
612
775
951
821
714
697
665
795
707
817
782
3071
597
784
337
790
609
826
816
804
633
832
759
752
1394
1129
745
959
531
497
721
385
327
495
816
745
2893
1037
560
802
944
893
809
749
711
729
758
688
543
534
390
560
613
717
688
891
915
711
891
976
752
496
565
784
866
638
732
833
851
1136
780
710
751
882
1951
943
1002
911
667
464
380
432
471
1072
692
880
3347
720
775
907
852
1115
931
900
922
738
464
710
562
1047
834
655
859
884
875
718
798
1072
1080
995
924
1383
571
559
434
432
418
867
432
864
560
652
641
907
943
1035
1040
1014
803
799
311
595
378
398
625
672
1011
707
528
980
865
889
961
953
1041
441
377
577
1663
712
865
593
844
866
592
598
751
1063
1085
1237
1133
957
725
752
848
864
338
985
625
681
737
720
666
912
849
848
848
793
687
912
752
374
408
556
576
794
751
752
823
937
942
747
773
863
871
650
721
621
2659
1221
767
851
1107
997
843
891
1090
1098
1018
1049
1600
522
408
780
662
831
463
838
550
681
933
1328
3088
1857
1173
746
1605
2288
2233
1689
994
450
320
640
1104
1296
1306
1389
1023
1069
754
732
795
907
969
3120
407
286
338
511
670
855
1014
706
619
669
691
850
888
935
705
710
625
587
368
624
576
787
831
1049
2875
678
747
759
870
1001
965
972
478
501
912
592
592
998
832
934
762
735
817
987
918
769
737
783
862
2828
559
604
498
652
559
647
1059
826
630
561
767
779
809
637
907
747
707
758
338
647
740
787
540
762
843
801
773
896
763
815
800
925
640
816
1061
879
928
2762
710
1168
911
1075
605
874
912
812
832
1039
765
2729
763
528
425
1038
901
698
661
848
858
722
714
768
885
822
886
719
784
1078
694
1088
524
597
464
674
1218
656
720
865
897
976
876
903
628
496
611
674
304
737
556
496
672
772
747
832
733
945
844
870
871
2797
781
890
272
463
579
555
618
880
750
865
951
973
1390
1402
1776
1738
1108
681
800
1405
1915
1646
1393
3472
731
667
912
1117
831
861
701
941
534
784
580
2759
1223
999
890
1093
853
958
757
750
688
873
683
844
1044
671
667
428
354
682
605
687
691
811
770
724
1879
887
807
994
1075
828
598
755
550
615
422
947
584
806
728
750
715
803
724
999
901
938
560
560
560
2812
551
485
703
897
809
850
530
738
784
852
830
985
1282
641
611
707
702
867
798
891
875
1043
794
752
2899
823
757
854
759
770
437
355
432
395
445
481
454
1399
670
738
675
708
704
925
802
942
552
673
787
776
951
697
700
1101
1136
1074
850
926
871
1006
835
740
895
599
1106
663
889
548
980
665
591
709
742
752
1954
1036
1019
1229
1133
1309
1119
1085
1040
720
629
3095
666
823
948
858
898
832
902
948
883
1056
531
739
495
732
867
736
811
727
814
831
720
869
860
804
2864
941
890
1037
830
873
704
1079
678
689
833
1023
1067
1195
1161
1018
848
798
845
806
450
573
846
635
2865
978
314
880
695
723
639
771
693
752
794
1095
874
1400
1237
663
697
555
361
653
701
933
690
967
828
2822
720
855
700
502
335
411
593
457
417
656
718
767
763
804
953
863
829
944
871
696
465
466
592
422
742
880
647
900
654
779
743
871
786
933
816
748
622
2687
585
951
1009
1200
811
597
688
913
654
687
881
1072
896
1046
1003
1206
1104
863
618
816
816
649
757
3117
688
581
842
899
928
1032
1059
839
671
947
713
678
617
665
419
834
799
791
800
967
973
1008
948
767
1723
493
560
688
375
433
799
606
797
816
588
933
736
1190
921
919
784
669
606
475
249
683
689
992
688
2842
849
913
1042
913
764
967
912
970
822
885
918
734
718
758
400
973
782
887
937
1223
1063
1123
1152
912
1114
624
401
497
511
802
693
529
1074
811
783
848
2066
925
861
817
927
874
693
848
436
569
316
585
711
1181
849
721
1049
832
833
862
876
807
498
625
421
2942
553
694
791
848
862
867
737
796
789
1038
1264
1271
1122
646
327
650
542
505
647
496
839
736
742
903
1008
960
810
987
860
491
484
680
796
653
547
578
3130
710
718
774
720
1039
961
1152
1013
1084
809
866
1952
913
751
733
360
827
683
907
708
1040
990
930
1104
1001
763
809
803
675
1056
713
717
656
992
944
706
987
697
959
945
1277
1213
1051
703
463
318
588
779
980
578
894
895
944
1007
895
778
822
971
720
388
615
873
1018
544
951
823
862
708
734
734
686
962
817
2186
890
738
944
698
710
657
697
485
668
1069
889
812
1040
896
1099
989
901
874
656
504
817
646
549
883
1109
752
805
807
641
735
871
720
851
778
879
710
739
713
560
655
449
589
912
793
829
827
1006
980
959
2010
986
500
435
499
543
451
685
643
528
688
749
729
1261
1168
1165
912
1086
1104
1289
973
1138
867
799
1469
860
863
848
796
728
810
923
962
704
867
931
577
650
466
544
485
495
575
752
700
846
789
1067
960
1315
1103
1123
852
693
275
590
372
723
611
461
826
795
739
799
938
854
848
948
906
528
466
505
400
565
2419
1257
1147
1734
1746
1993
1830
1398
909
1093
1403
1393
1197
1037
571
624
1051
1013
809
1327
1143
1265
721
1154
992
1232
955
944
623
587
599
620
523
894
868
775
974
846
931
1068
851
781
816
816
829
592
465
2646
688
849
672
933
985
1095
990
858
1123
1061
711
928
972
850
640
464
178
455
633
733
478
720
663
659
1968
988
897
1058
976
1428
1617
1648
716
689
995
1260
1559
689
812
828
611
955
970
1316
1314
1435
1007
595
768
841
810
992
709
602
668
732
1088
934
889
819
1839
914
871
992
528
448
569
766
368
441
526
880
766
1055
771
1015
835
1093
942
1088
1357
1327
993
1431
2715
1136
791
496
1074
1071
873
836
834
734
835
958
1851
1795
2226
1856
967
914
857
524
656
720
951
1168
2032
934
945
958
932
937
459
891
1398
1514
1381
498
1411
811
969
1311
1565
1787
1431
1373
941
921
674
570
694
834
584
1023
687
691
814
1019
703
817
877
1084
1526
843
1050
832
1189
2943
3322
2513
1010
1147
2663
4095
2825
2443
1341
784
848
1010
942
910
432
583
357
576
511
897
782
1072
1274
1175
813
897
887
823
899
1201
761
847
1040
597
762
571
828
581
976
846
677
2862
1283
1373
1274
1456
1445
1562
1155
1403
1718
1458
2651
914
905
880
861
736
704
850
869
995
983
1088
2851
848
746
460
704
606
569
931
929
847
695
855
848
1154
897
919
656
558
362
577
375
755
615
683
930
2559
969
1057
1200
1431
1716
2173
1998
1406
375
1178
1487
1072
1168
767
637
821
579
706
776
741
783
991
1039
1072
399
417
677
799
499
749
801
825
1061
1571
1287
1897
1712
1121
1068
1505
2007
1405
1022
654
384
615
695
592
833
663
691
849
848
1045
910
1055
868
881
1413
1895
2288
1952
1407
880
976
995
979
763
810
784
941
848
880
990
800
1297
1317
918
761
703
645
883
2077
982
953
845
784
866
995
1411
1455
1177
610
478
1843
871
803
593
1195
1255
1215
981
896
852
901
1088
2298
2491
2010
848
1232
2477
2654
2317
1916
1023
741
3147
879
956
1022
929
969
891
656
836
654
843
949
2453
782
1060
917
1194
841
960
880
912
1081
1120
684
3147
193
583
365
446
613
511
895
1063
984
975
847
698
1070
1399
1339
1125
464
438
874
603
882
731
715
756
687
558
659
891
754
933
889
822
415
731
565
546
2128
609
467
580
737
818
641
941
913
981
848
910
652
1373
384
816
927
859
880
952
925
963
795
719
931
960
961
997
969
859
499
853
618
947
453
547
592
895
2610
740
713
801
828
942
939
1072
880
1038
880
827
717
900
707
899
886
783
656
816
745
901
770
1078
978
2962
449
467
699
567
641
910
1259
1698
1641
1389
1090
2998
1411
1095
858
1534
2598
2654
1941
752
342
461
1872
725
958
815
841
832
880
834
931
873
812
1461
1499
1698
881
528
1009
1386
1565
1099
857
675
791
996
1776
1195
1006
937
555
494
385
609
416
816
885
1060
2322
838
880
918
771
956
1150
614
603
464
400
525
567
807
829
976
877
912
832
813
849
875
752
1083
506
3104
414
842
912
831
853
1197
1152
1168
889
1018
898
1443
1001
853
625
566
448
529
384
528
653
576
853
2480
747
1034
1152
1023
755
823
836
506
769
510
457
2214
656
944
511
879
847
631
748
822
710
918
843
989
1114
592
618
489
560
746
692
776
638
747
747
892
848
1056
850
986
677
864
316
721
505
718
773
1104
1141
1405
803
694
842
896
784
882
991
551
419
481
700
2157
743
489
496
754
738
689
674
858
848
968
852
922
1057
918
406
628
722
834
801
821
752
944
632
900
752
877
838
917
695
511
736
405
333
798
848
939
718
2320
637
817
928
1090
1033
851
866
840
582
704
385
511
366
687
414
843
879
695
895
891
912
883
895
941
1995
394
829
565
563
685
507
922
765
723
688
789
896
1427
663
958
735
703
794
572
247
626
788
602
752
830
763
697
830
841
673
781
705
788
694
698
631
671
2160
929
306
806
635
791
817
1041
1165
1393
1089
1005
3207
471
411
592
823
761
527
720
735
759
486
726
799
991
1036
1264
1128
643
698
1217
1425
1362
1189
504
1813
998
1168
1280
1079
905
846
897
817
688
869
727
1389
621
831
443
464
814
971
986
976
1315
1036
973
2593
848
432
640
552
587
1136
1034
550
841
631
865
2240
944
881
827
802
787
853
618
709
880
803
860
1054
1404
1145
1206
901
945
906
880
769
887
909
569
489
1054
374
405
365
1006
535
882
947
631
677
811
830
2223
935
907
691
742
530
715
914
800
861
976
967
899
1066
956
835
893
950
973
819
458
185
510
486
640
799
797
900
816
732
819
912
954
885
869
786
591
464
1851
625
919
318
868
528
1062
1075
1245
1410
1426
916
3306
1104
1107
608
699
653
468
702
790
597
806
877
3531
693
793
784
771
823
882
701
732
665
1100
957
889
638
798
982
1021
898
821
880
837
798
802
1042
541
1142
457
495
638
433
981
826
1078
1099
1277
1185
1247
1408
1052
816
965
422
455
426
706
655
635
558
875
1417
935
650
752
763
867
773
883
782
446
312
497
797
547
367
511
795
794
784
630
705
736
765
684
801
2000
846
838
804
903
831
997
1043
1162
1136
985
1001
2222
821
944
769
933
533
592
334
451
567
546
635
687
857
742
571
763
673
799
900
1088
927
803
685
626
1737
527
621
729
1088
1301
1243
1419
1119
895
770
763
1341
656
687
1043
737
896
401
698
358
830
883
656
2109
862
720
765
912
834
432
528
325
672
707
1066
983
1272
752
855
571
790
899
944
839
915
1010
935
1167
3037
801
771
723
640
866
917
880
1031
749
870
860
2130
1141
1287
946
819
511
734
438
646
641
670
702
638
627
848
759
857
802
740
623
636
559
802
733
991
1683
826
576
817
690
771
725
868
931
843
786
528
401
1295
565
624
466
466
795
810
656
643
854
678
719
967
784
875
745
465
676
1012
1168
1424
1648
2274
2130
1930
1575
1416
927
750
720
801
464
717
640
572
720
2126
1199
1022
992
753
795
1248
1741
1893
1749
1616
1209
855
754
737
334
731
624
767
785
779
675
720
681
3120
883
928
848
951
688
482
642
406
417
963
545
1085
1296
1219
1345
1398
923
800
914
1075
836
687
914
1925
576
739
961
848
683
736
609
848
959
964
962
1046
1392
769
603
1161
1023
688
546
507
720
816
711
679
1389
896
795
891
962
586
571
961
799
853
635
737
526
793
843
763
827
1340
1297
1197
937
944
439
701
894
1051
1092
511
443
558
688
736
576
805
882
897
993
4053
870
766
765
739
591
622
416
743
699
670
706
961
1194
1142
1106
1119
996
1078
963
1168
790
999
919
2086
797
1103
1123
804
897
1085
848
734
801
879
490
2319
1397
1706
1407
458
636
1051
1129
1036
659
672
683
991
796
1162
1023
987
784
1008
673
746
759
716
497
1392
829
589
716
864
691
832
873
921
643
929
695
564
339
595
450
823
685
687
736
1052
912
881
769
1105
1915
753
202
670
438
656
747
577
737
745
707
832
1008
1206
1006
981
898
450
398
590
807
494
432
671
1181
1616
1397
1394
976
1197
1354
1090
973
615
511
432
1957
807
610
699
553
752
886
752
678
981
922
946
797
1302
826
810
748
482
368
646
811
795
832
858
688
2002
867
960
831
974
885
859
570
644
475
634
338
656
1113
849
723
880
814
859
789
842
831
770
807
1084
747
511
801
1393
1395
1699
1323
1260
714
842
813
928
1951
1535
1205
1566
731
1019
841
1231
745
777
897
781
687
729
830
827
939
803
1008
752
715
469
482
638
3347
752
784
861
671
758
835
940
915
1023
799
1010
848
1088
443
539
598
1070
607
977
839
969
752
782
851
1427
922
894
834
402
457
528
464
578
499
504
663
773
742
803
1122
1408
1251
1489
1392
1324
1104
1341
1240
1789
911
1079
659
832
803
657
793
869
730
895
942
1413
503
732
720
510
802
814
839
752
813
804
612
890
833
1019
910
986
721
737
931
1393
1089
1127
957
957
986
1003
793
907
906
926
687
813
870
560
592
421
1579
606
432
688
645
749
816
720
839
978
821
826
1007
1087
528
830
752
903
373
817
545
962
740
1147
832
1439
1012
786
861
906
557
566
437
802
784
791
1145
2211
794
814
608
769
808
1196
1385
1461
1626
1535
1038
1513
1113
976
815
703
1041
867
802
625
753
925
853
992
1037
675
375
577
815
1010
462
663
464
865
639
3349
717
1040
825
992
883
991
765
656
541
707
776
572
592
496
881
1131
841
912
969
1050
809
930
798
720
768
796
412
819
761
1022
745
810
835
803
887
771
882
894
813
977
749
912
687
934
829
681
606
816
759
1492
675
793
753
762
1023
923
715
496
317
654
559
850
778
828
771
666
621
737
798
746
798
999
827
809
416
1067
656
868
854
813
1040
1022
1019
905
897
766
705
881
1047
865
459
430
253
608
624
541
656
809
706
3433
960
897
1107
1149
929
1239
685
723
619
641
749
3371
864
688
1043
944
710
986
885
1069
899
848
750
1335
522
511
928
784
902
658
791
761
881
628
757
956
1399
996
824
914
688
1087
1403
1151
757
691
624
656
1412
957
659
960
880
807
851
981
846
614
677
965
696
833
670
592
738
688
590
702
638
781
754
947
816
1328
650
736
569
895
816
802
769
1175
1063
1010
811
761
1022
978
1147
971
859
801
395
666
528
830
416
962
884
881
727
855
832
879
886
828
700
934
1014
1127
1503
705
880
861
1040
1116
772
946
833
839
882
1050
3792
658
486
776
420
635
507
887
825
795
816
791
829
1253
911
1015
944
732
415
629
367
551
1134
815
653
1488
852
874
831
898
899
837
830
1070
464
499
406
3355
590
1046
917
863
722
943
786
1023
1049
1082
710
3476
860
655
301
444
573
510
330
496
890
1013
815
716
755
903
748
738
831
829
545
822
587
806
783
720
3303
697
631
945
784
753
787
1042
848
958
558
766
1072
1183
877
1237
1279
1392
1204
1189
813
661
811
875
2077
976
883
906
493
944
843
1081
615
858
816
913
991
688
898
970
821
837
866
826
368
703
1345
805
596
3255
739
1200
946
1333
1136
1763
1654
1605
1355
1407
791
537
555
1131
1562
1145
906
528
912
758
818
1005
3171
978
717
861
759
789
359
797
688
1081
740
970
990
1274
1166
1089
1009
975
976
987
880
1138
649
761
3081
978
429
493
540
544
839
889
826
763
676
838
704
1403
511
752
208
582
362
687
730
841
1217
1134
560
3407
859
797
847
834
910
814
893
698
569
627
560
950
976
1190
669
747
725
839
896
882
781
823
560
628
3154
588
534
693
582
934
912
977
695
1146
918
1104
880
1148
703
794
656
859
401
607
752
793
752
679
838
3079
1408
1405
1054
884
763
522
716
588
610
496
761
3245
852
1131
1302
1424
1243
1168
930
975
991
1055
752
523
576
466
555
871
672
685
943
832
607
1015
835
3103
863
1136
734
752
825
997
997
930
510
957
1023
1037
848
1121
933
1261
848
1148
976
835
313
651
878
3539
667
705
656
778
736
612
653
957
717
1069
905
960
762
649
433
831
541
684
502
650
845
794
511
785
916
1165
911
1008
714
645
279
511
675
672
691
576
700
1407
750
722
723
737
710
826
793
1302
1265
1723
1408
1470
1141
1058
874
1290
875
589
795
881
918
825
869
1230
457
390
581
449
625
695
853
677
923
826
735
2944
1328
1483
1392
1074
689
496
710
524
450
731
806
3024
1205
1102
874
889
907
761
932
966
852
673
400
3191
319
374
579
876
467
752
694
782
917
880
945
1070
1439
1306
1212
1185
1078
771
671
922
491
720
877
762
690
848
819
723
861
726
641
688
715
386
383
560
2705
686
944
672
541
893
642
962
905
820
753
943
755
1451
1166
999
871
860
907
1206
979
818
650
847
912
3425
911
1036
410
533
591
582
434
625
458
865
857
870
978
1054
854
1134
1006
1200
834
889
462
544
384
695
960
432
823
878
752
875
821
932
892
1065
955
506
1936
361
543
650
682
712
672
880
912
1037
935
1159
894
1126
1143
1085
660
596
722
770
623
497
481
1039
723
1108
549
856
775
815
720
804
599
618
361
589
384
1078
713
669
815
911
957
746
716
827
756
822
838
699
624
432
357
626
816
960
575
1393
1211
1005
1113
1136
1092
814
933
1059
534
496
331
596
447
528
464
733
967
682
671
991
830
748
914
915
849
527
736
726
627
944
978
923
912
851
857
655
630
785
834
1002
822
2923
737
586
378
487
529
607
583
910
848
643
710
1052
1104
1054
929
1162
1038
859
831
921
853
874
740
976
1022
891
659
795
812
1005
1062
959
669
495
445
435
651
545
561
612
793
858
738
1097
1222
1328
1305
1010
1286
533
485
643
304
673
342
511
640
1034
766
795
1404
1159
1116
1163
916
880
465
416
496
511
368
849
1152
812
593
832
595
721
817
947
1073
935
747
760
2791
731
742
991
829
834
1008
912
717
592
743
720
906
1085
930
531
407
652
538
668
400
971
579
889
706
2896
908
979
773
1014
815
906
928
787
464
563
831
574
764
1113
831
1136
727
855
877
1154
1062
1281
805
637
739
566
808
997
916
816
797
749
707
823
819
907
2619
1168
1136
1102
848
962
433
629
537
894
437
968
2796
775
713
818
940
1165
1296
1638
1211
896
495
506
2106
643
763
595
635
819
753
898
747
919
784
1008
661
670
528
801
850
921
586
701
763
727
748
816
821
2977
880
897
832
707
362
658
436
437
333
590
397
775
1185
710
655
989
885
1104
1033
845
654
672
366
659
1711
1065
784
1242
935
969
535
835
796
782
711
1017
2973
618
742
467
438
469
656
505
772
666
752
816
858
1334
949
880
892
889
706
647
729
745
528
959
720
2833
1014
957
848
1265
905
1062
832
985
531
494
601
2839
398
784
387
718
691
848
670
739
803
903
784
954
1245
703
591
740
581
764
587
732
816
1001
784
852
2781
944
873
967
831
490
624
523
240
394
529
801
419
1408
735
753
789
777
752
858
858
868
419
651
568
682
1040
820
735
1135
753
1034
806
1097
939
959
912
884
803
577
667
811
977
608
784
477
896
752
732
753
2635
901
814
949
922
797
782
563
799
731
953
828
651
1474
945
753
834
886
865
962
912
996
829
801
843
659
869
930
624
963
709
683
717
731
710
851
741
826
2739
733
542
705
546
989
924
841
1187
1093
760
848
809
1008
762
895
919
585
399
592
369
543
545
797
649
2745
723
772
877
1109
814
793
759
879
450
459
525
541
791
589
894
951
736
980
654
905
710
882
933
1034
2764
619
687
814
538
697
424
626
866
951
887
785
743
1072
855
811
784
611
377
541
464
774
583
917
755
2709
1215
1118
1011
1131
784
1001
796
817
773
465
166
1104
448
688
427
630
675
707
720
896
867
838
832
953
978
895
658
720
373
738
750
880
999
922
830
870
2591
994
787
1011
1034
825
545
719
538
578
371
809
511
881
799
770
866
880
787
877
977
1120
821
912
883
2704
589
484
775
688
816
881
705
908
869
882
913
959
969
574
271
466
439
469
371
582
704
777
688
781
833
1104
890
977
874
850
510
820
724
885
491
861
781
2853
991
807
773
766
865
950
800
720
457
564
598
832
841
658
746
709
780
813
811
750
817
751
688
725
815
942
784
838
907
637
543
730
1089
954
921
773
816
2690
922
907
865
752
407
477
549
480
624
643
449
848
967
784
720
815
866
1009
801
885
788
989
432
695
2404
770
827
777
855
925
716
974
829
891
1066
1135
990
893
627
957
484
821
837
619
825
788
825
768
853
2798
843
902
922
719
576
820
878
750
494
803
538
975
1200
914
768
831
775
876
826
944
474
730
466
662
528
929
556
655
752
812
669
832
762
974
807
834
670
2507
769
874
867
1072
871
1241
1237
1263
749
779
749
2791
864
833
880
603
433
432
578
528
434
580
487
763
795
834
745
1058
922
1006
752
1040
690
773
844
822
1343
752
666
1005
957
1031
747
960
1057
1083
867
917
1072
727
488
458
369
914
973
691
1041
715
742
821
1824
728
737
867
825
661
747
607
421
762
960
784
606
1169
882
811
800
1072
846
898
800
977
612
507
427
2659
432
752
633
576
752
896
623
784
854
778
767
965
1013
867
429
926
885
960
760
715
805
787
662
695
2559
786
763
969
944
850
502
689
809
787
527
975
501
1485
655
748
765
886
879
823
841
1056
725
688
795
2605
735
1087
611
709
711
945
622
770
903
944
917
887
872
630
548
718
787
953
861
691
787
767
789
687
804
896
737
880
843
657
436
919
597
827
912
1109
1164
2674
1205
866
789
919
946
912
890
1023
649
688
752
2865
579
475
701
569
912
821
1098
1393
944
1124
1104
2639
922
830
425
560
406
591
443
751
654
895
877
755
957
947
958
845
918
698
372
710
341
710
501
826
2201
818
807
719
592
944
798
859
798
930
669
651
718
1395
720
718
658
891
740
1076
714
786
867
848
891
2658
880
677
511
679
321
657
624
609
603
681
778
798
1269
807
689
930
731
862
559
720
363
771
737
781
625
945
765
814
767
1001
912
854
784
981
787
657
481
1601
687
688
703
565
793
786
737
1089
1035
1019
724
2501
945
609
564
730
688
737
487
789
976
1089
909
880
845
1067
899
846
881
673
336
614
670
496
350
645
1614
789
749
1040
837
1066
961
1215
1053
1200
643
862
767
811
777
894
542
885
1106
1198
720
819
885
847
1701
865
988
827
995
877
911
719
677
583
827
855
695
990
847
1074
887
944
910
1129
705
707
614
704
528
1755
661
1008
846
780
702
905
832
903
839
736
418
550
401
811
536
668
839
640
529
831
627
823
831
931
2431
950
861
1117
778
989
786
816
651
759
967
1023
929
981
912
909
839
851
903
695
352
477
622
546
535
2303
447
835
929
812
785
882
707
913
834
1104
580
846
988
715
655
962
821
913
998
1303
801
923
839
848
2507
970
969
648
432
487
259
799
521
607
701
877
737
1190
815
944
787
1087
912
976
688
667
478
639
825
2420
686
961
933
1107
719
1008
832
803
781
842
390
660
787
470
406
481
407
448
749
848
658
795
782
1034
2347
844
879
810
676
889
666
772
637
779
730
896
766
853
771
882
866
908
880
677
449
560
324
635
496
745
718
724
787
814
725
1023
799
973
891
1019
623
790
1102
867
543
1222
779
988
866
944
816
926
903
922
2259
1104
963
458
462
842
926
759
713
583
716
813
634
930
843
941
726
915
998
1059
790
733
406
752
496
2269
658
793
809
978
683
908
748
811
871
1038
573
464
594
576
474
665
416
559
816
787
704
945
774
1008
789
1036
869
939
1161
1093
846
944
935
656
868
751
771
820
761
885
859
820
816
727
455
485
683
863
557
2269
496
975
790
694
702
944
800
1095
814
978
679
709
979
830
770
814
770
707
992
994
674
766
803
871
726
965
889
551
449
688
485
697
954
726
735
754
862
2326
817
965
957
970
927
990
710
919
854
702
865
944
1381
1203
927
1013
811
954
830
963
784
925
551
601
1872
831
784
691
657
448
977
715
723
762
690
897
771
1058
832
713
477
565
327
619
428
738
1009
1447
1120
1487
874
805
880
961
871
788
478
592
325
739
607
2302
511
811
602
660
659
754
765
926
882
803
477
536
861
541
341
880
790
779
925
1019
707
737
753
869
879
959
934
543
327
806
347
559
449
667
654
731
726
2133
784
926
899
1091
911
1039
691
724
625
717
685
895
735
1200
953
912
699
954
820
867
843
907
610
689
1926
468
558
534
787
544
814
735
644
794
715
1021
912
1023
790
800
823
877
767
967
877
937
1004
1157
742
1135
969
1041
885
890
874
912
414
627
670
483
738
1861
686
891
736
803
655
944
868
1008
823
955
758
1077
950
1398
1222
1472
880
826
790
972
608
852
784
1068
1094
1162
880
656
1056
1301
1501
1229
1038
623
743
1104
841
657
739
958
853
848
915
933
564
634
388
2238
703
793
592
1072
814
851
767
860
911
983
812
1007
738
661
294
631
329
737
719
766
944
898
714
762
2025
758
859
1002
816
713
528
699
754
907
752
833
953
1060
734
833
899
1053
737
747
898
993
466
528
407
1594
846
678
381
859
842
794
694
903
831
949
870
1075
1019
1135
799
1213
725
731
608
951
1163
1264
809
865
970
907
759
1110
782
594
335
673
271
602
450
551
1076
803
715
736
755
897
785
839
860
988
656
721
662
1055
400
688
534
870
864
834
710
1050
923
832
946
1390
592
530
336
947
833
1104
816
496
758
710
640
1967
688
887
748
1023
1051
1078
829
713
603
758
865
1978
843
811
684
662
880
853
809
848
869
947
573
560
1201
432
575
755
609
832
711
850
784
987
947
957
880
1087
919
999
751
1073
1021
995
774
960
1283
1265
848
867
762
978
1101
1254
993
848
387
464
481
669
1076
1337
1374
1178
946
656
773
837
739
871
817
885
651
1034
398
666
569
944
679
1200
911
1023
727
1156
894
1177
839
901
849
657
464
593
341
662
615
558
815
2207
707
832
679
786
814
1105
1072
979
555
659
587
719
473
761
638
891
830
659
783
894
832
896
748
893
1351
566
528
831
464
839
656
870
685
752
842
1093
801
1121
959
1177
560
496
481
830
722
1322
1647
1602
1431
1383
827
881
843
896
893
898
843
473
298
448
827
1198
647
630
635
821
695
807
843
825
802
863
673
1089
683
754
572
1019
527
555
576
1110
1319
1535
1243
1338
929
1094
963
937
610
528
912
1168
1229
563
544
1717
659
769
738
747
699
870
701
785
701
539
409
810
864
894
581
751
560
807
637
642
783
921
703
762
803
957
666
780
752
646
560
608
771
798
773
804
647
1808
720
928
965
974
723
789
887
791
550
821
681
784
1397
950
708
808
785
954
971
912
817
538
730
436
336
755
399
633
542
705
685
659
784
889
835
960
795
1789
656
751
749
880
896
1072
745
1204
1170
1061
850
1686
925
844
906
943
695
656
482
675
368
583
858
637
882
1403
1414
1414
996
1067
768
930
872
638
434
838
491
1035
656
581
707
944
655
752
797
1049
902
912
1937
881
466
511
768
772
511
1488
1611
1287
1121
1003
1535
816
791
922
784
845
753
477
829
483
357
448
3381
609
960
1275
975
911
832
848
721
960
990
535
511
816
306
575
511
637
432
718
771
725
722
891
847
979
977
931
715
1036
489
651
734
814
615
1088
1079
1104
1071
1089
939
871
787
926
656
683
929
459
528
451
1014
565
894
671
758
854
818
963
783
1078
941
891
3155
938
406
601
577
724
661
913
771
784
720
1131
1104
1309
966
958
611
651
533
461
315
543
600
755
848
1887
641
897
865
851
943
944
701
692
592
641
307
813
1283
987
933
1055
907
934
819
856
858
958
861
479
1558
697
340
609
526
613
487
847
853
641
681
800
772
1424
1137
1016
784
917
542
995
880
1094
1040
1451
1109
1197
864
955
784
900
763
914
697
940
264
771
555
857
806
496
574
752
697
640
801
668
918
878
701
592
525
379
370
569
581
859
600
1109
784
809
672
836
2069
915
834
961
1021
1190
1008
1104
1264
875
525
829
938
891
1149
1363
1039
935
741
985
871
606
486
576
1174
776
766
635
954
886
842
681
890
957
806
871
815
596
777
743
511
556
511
592
523
746
827
736
625
1351
912
993
749
986
576
773
1001
738
739
846
659
1251
759
816
477
1008
774
922
1023
995
791
651
415
975
1184
640
449
627
909
737
674
786
731
801
861
804
955
837
866
659
639
738
772
701
742
851
752
635
697
1520
863
805
832
835
338
480
399
475
676
650
479
688
1087
783
798
1079
929
999
923
1040
794
988
1042
722
1118
995
811
809
881
1109
765
866
803
884
735
837
3444
667
368
717
591
659
432
633
625
656
851
753
734
1398
852
965
865
980
427
734
859
675
619
774
467
880
1040
880
675
849
722
943
848
846
734
469
362
651
2006
651
564
535
835
835
821
907
801
897
1152
1489
1046
828
688
1386
1321
1277
912
970
916
1205
936
672
1746
785
819
784
770
877
571
585
359
453
481
587
387
711
811
776
567
876
653
848
691
987
957
849
718
655
880
942
841
592
858
935
834
879
827
887
944
927
3390
553
656
577
719
1040
855
1219
1086
1117
942
867
1834
976
1039
1327
928
1118
646
833
1134
659
948
1104
1157
916
1023
963
659
974
783
816
841
749
1014
661
1118
482
482
763
931
1034
1012
905
650
1174
958
1104
1376
1035
893
935
1150
1648
1020
1098
775
1122
731
1395
800
662
607
1005
916
929
975
882
479
424
336
594
555
715
635
625
686
846
795
727
749
864
775
886
3255
496
391
743
703
597
574
627
785
704
682
737
907
1254
1039
1057
926
886
787
927
902
851
448
673
575
2250
1038
748
722
747
859
830
951
951
790
775
527
1242
753
1042
645
1077
1143
960
818
1061
896
1086
992
1575
926
602
672
461
411
532
400
455
753
940
822
719
1006
720
930
946
770
694
339
674
970
1114
626
974
1840
1182
1200
1065
1040
1165
1037
899
1059
966
672
1325
458
654
547
595
683
901
831
1230
1192
1323
848
1091
1089
1116
1022
938
368
711
935
967
843
816
678
1329
821
662
726
862
650
861
976
720
483
509
301
504
870
730
470
773
701
665
722
815
725
1022
783
879
572
1008
227
433
315
781
961
1144
750
1003
677
717
1167
1117
973
1168
1385
1407
887
871
662
1059
576
627
2961
1117
931
1009
885
1344
894
1090
1040
606
539
582
1220
972
1161
1043
636
941
720
816
762
973
877
969
1913
895
432
593
751
522
546
770
465
663
746
800
625
1023
743
819
740
750
815
743
304
721
901
682
752
1334
1142
1301
1072
1155
886
822
767
954
768
610
475
1770
396
589
553
655
254
714
603
755
654
889
951
1103
1199
1180
987
1227
757
830
685
731
660
757
611
951
815
763
813
813
786
913
958
673
327
597
336
746
835
730
737
802
655
817
711
848
729
885
721
762
601
1291
592
805
734
995
635
1149
713
826
725
822
784
801
1146
851
509
726
576
691
432
528
627
717
722
871
2835
1072
815
864
893
1082
879
831
631
942
761
784
469
761
944
873
746
788
821
939
835
862
963
785
658
1234
624
642
801
528
655
868
709
801
768
1009
989
993
1253
1299
973
971
853
1178
820
1063
816
693
656
906
699
803
773
896
880
814
742
576
464
509
555
737
323
655
780
844
733
939
762
944
947
933
623
640
614
1328
1071
682
590
908
775
1257
910
899
637
787
752
894
985
887
624
901
1179
722
976
667
497
566
666
981
1951
935
1005
944
874
983
896
672
398
627
378
532
465
626
565
733
832
817
1050
1182
906
1397
1885
2082
1097
939
346
666
1167
1311
1568
1412
2019
1751
1360
828
1127
909
820
1175
848
817
752
1075
926
1137
1114
1535
1597
1488
724
898
826
873
1054
1066
1022
642
622
1189
683
762
606
752
795
979
784
1111
1154
1325
1241
1751
1264
1398
948
706
788
913
688
1135
703
1211
918
1381
961
1310
1058
927
682
929
628
913
1050
895
1088
1086
1168
767
751
805
720
780
942
1107
886
879
1053
720
452
797
1009
997
960
1021
1136
1273
1056
766
2917
1191
813
842
851
1117
617
882
813
807
338
655
2736
1003
1008
1109
1084
1006
789
787
895
947
897
946
1009
1104
1001
914
721
751
832
916
869
914
946
1250
2211
1267
928
637
1047
1078
1182
726
880
562
896
812
1007
755
713
978
1075
1404
1570
1894
1104
896
1038
1300
574
683
675
1076
1034
910
576
843
793
906
930
1324
476
592
911
790
583
970
658
857
617
955
688
763
1136
951
747
848
1021
688
578
817
816
839
432
723
2864
953
646
710
970
1259
912
1169
1046
869
323
736
3025
979
598
1009
871
991
603
795
692
813
720
951
1072
1416
912
535
789
487
384
720
670
923
911
1383
934
1415
894
851
785
1123
971
967
1008
1249
941
1072
530
967
1172
1394
1230
897
781
820
766
1136
1022
896
740
978
1085
874
687
896
834
1215
818
1061
871
957
740
1203
1012
1063
711
1023
789
721
406
659
571
640
747
1111
686
949
735
902
880
835
769
800
703
1209
1023
2181
976
1005
882
1015
869
984
765
911
785
851
816
2039
655
749
321
643
688
635
629
787
673
811
703
912
991
782
819
762
623
896
385
564
366
838
580
691
919
1065
698
883
867
1023
969
957
798
558
720
848
614
1403
906
804
634
833
720
882
977
1136
914
1202
1127
2269
1104
1264
1152
1006
461
781
651
933
683
1047
832
1035
870
982
846
858
791
873
734
446
287
801
901
2082
683
928
833
1015
976
1090
1008
1100
1014
833
854
1328
781
937
735
1044
1077
1221
867
734
795
839
727
1084
820
907
774
768
657
526
771
958
602
765
934
1223
847
1104
941
1005
832
887
1252
1726
944
1046
1394
1999
1291
958
867
921
707
727
843
853
866
916
942
1962
463
624
763
699
495
683
375
849
746
703
883
976
967
1130
989
1104
679
745
453
846
581
595
623
765
2240
981
771
1202
1054
998
886
1138
919
636
752
496
1973
810
653
870
900
1061
1037
1263
1142
1305
912
987
1217
624
958
634
688
753
940
833
834
1218
832
923
2139
912
901
930
887
962
663
785
1072
1390
1228
1405
3020
1306
843
919
784
891
755
911
916
1087
787
816
2066
662
689
569
947
574
915
1003
711
812
907
973
830
1351
1049
758
891
987
534
576
645
705
641
902
778
1396
798
866
787
1063
768
865
424
560
353
656
556
1227
1265
1379
1035
959
592
1295
1079
1139
825
1082
631
1017
709
784
417
852
751
560
777
855
974
833
833
2132
802
846
881
880
729
923
1061
1392
1216
1329
1119
2150
1092
1104
847
976
991
909
944
1012
596
742
722
1198
474
835
559
881
816
895
681
935
937
1073
848
2340
683
806
640
994
816
1171
1088
871
921
804
721
1124
875
982
848
1121
737
654
704
859
784
688
441
807
752
1072
970
1248
960
976
695
880
833
928
414
547
1561
775
419
833
704
1082
911
962
651
918
814
964
910
1281
960
1107
704
870
587
619
917
1262
1059
1077
1233
1855
1219
1152
965
938
1120
1407
1731
1412
1202
780
581
702
688
955
1018
855
877
935
769
1170
912
935
688
580
247
666
470
907
832
737
863
827
898
1168
1005
1342
1335
1502
1232
995
780
487
412
633
877
618
1917
849
891
1307
1087
1216
1214
1272
891
769
530
654
742
674
506
638
491
832
949
802
795
945
790
1069
929
1023
889
1001
978
988
1089
1008
885
1350
1040
1104
1472
1383
1117
1253
943
946
1023
718
651
636
807
810
1007
577
752
884
725
774
833
922
933
1325
1037
978
943
1227
979
1040
443
709
727
944
897
809
858
982
1936
894
816
1008
421
570
396
1016
701
919
734
832
2819
1045
801
1114
1085
1119
983
1232
1134
1392
1134
675
687
1349
1790
809
1066
874
812
986
944
1054
889
1297
1130
1199
765
490
1023
698
998
1081
758
1010
908
1415
843
918
784
867
945
1325
1218
1328
1392
1395
867
1041
588
954
771
816
707
1040
816
880
1055
950
1022
682
313
752
720
773
997
1010
707
885
827
807
751
2320
820
998
911
765
734
718
482
657
373
733
677
1272
1072
964
949
949
939
1094
949
1007
606
546
453
967
1226
1185
879
963
905
912
932
854
912
1102
847
948
1414
593
573
1414
1249
1130
626
1088
929
1308
929
854
897
990
902
910
846
759
747
678
816
928
729
688
2469
915
827
870
775
1131
1001
1170
891
1065
686
967
1909
662
951
592
777
1339
1583
1878
1011
1081
1072
978
1002
1007
841
723
282
720
335
826
910
668
931
949
1391
816
826
1094
976
1090
938
896
547
1130
1108
1264
1418
1563
1089
1090
912
724
920
1008
932
1008
1062
2311
939
1103
960
1077
558
969
721
753
960
917
638
1952
819
791
811
911
687
653
531
1160
863
896
752
1446
1555
1393
880
771
880
971
800
1008
815
540
580
573
679
690
469
947
613
808
976
766
782
958
1009
953
2157
1125
986
1335
1264
1169
853
1336
1041
1557
1403
1166
625
861
897
991
1073
1118
1372
1249
910
565
404
1211
894
995
1056
960
750
787
816
851
1056
942
906
1897
870
1400
1414
1359
1244
1447
1641
2119
1585
1078
935
933
939
853
977
1172
784
535
459
576
689
673
1003
680
815
832
766
805
800
933
799
880
791
816
505
2092
1121
994
631
1079
1089
1610
1531
1929
1424
965
793
1072
1023
823
567
1042
633
560
561
779
560
800
813
1659
1490
1626
883
876
827
1001
545
507
497
774
814
1274
811
1230
822
906
620
770
871
837
823
1093
850
902
815
511
268
529
544
641
736
864
735
1009
897
1021
876
979
1072
1141
784
903
565
1166
910
1037
792
2188
959
811
855
1074
951
849
1040
1116
523
464
407
1781
642
829
718
730
765
946
672
1031
879
1067
1023
1303
1189
1153
871
711
469
661
784
944
1037
1383
1003
1717
1016
972
842
982
903
771
413
778
439
798
747
1746
688
939
697
873
733
999
911
1043
923
1120
534
635
752
443
761
898
960
1513
1298
1643
1011
943
873
955
920
927
923
819
402
688
423
628
944
689
989
998
1804
805
893
960
967
1152
974
1067
657
1136
875
880
1851
1022
599
993
1077
1107
858
819
1008
955
908
861
1380
576
713
448
695
432
438
654
710
835
730
1109
1043
1312
1104
1011
884
869
789
1065
678
942
627
1037
1860
1238
865
1063
869
886
863
967
989
633
438
691
1894
765
560
845
730
697
778
854
797
914
828
991
912
1286
656
959
946
997
1080
1269
1057
1404
1296
1358
629
989
886
891
895
1020
810
642
342
592
375
496
819
1037
685
1040
875
823
896
1200
912
1000
976
926
753
1181
846
944
793
871
489
865
775
811
615
1015
944
2384
985
1035
425
550
333
719
629
688
482
719
823
912
719
902
845
1088
895
1120
990
822
507
719
479
804
971
780
1022
867
838
902
880
1035
822
1137
1099
1307
1501
1148
1084
1424
792
726
1383
1982
1970
818
848
1986
806
872
949
1215
739
755
946
1073
720
839
759
779
621
705
583
912
998
969
802
950
874
656
343
735
1584
848
547
691
703
962
963
1215
1101
1229
1023
1566
2159
1066
720
1356
1119
1419
861
859
384
844
937
718
697
818
848
746
913
815
550
707
430
543
367
439
2350
612
816
767
688
771
670
805
853
1119
993
1293
732
1396
794
1056
848
879
939
866
784
701
820
784
819
1398
976
813
400
712
466
628
647
641
526
765
848
989
880
1204
1031
1046
890
1031
835
1040
912
1122
754
2260
913
723
880
805
602
883
923
1120
869
907
983
874
882
962
720
752
413
613
972
829
726
752
805
895
2307
1019
801
894
757
847
578
588
660
652
605
887
846
977
691
932
857
953
862
915
449
429
711
1009
691
770
432
727
638
787
726
763
743
949
847
1174
893
1063
1535
688
634
896
906
1179
987
1041
954
1045
954
1023
1131
1098
935
889
560
636
573
944
825
788
784
1237
1372
829
689
706
865
868
701
893
458
304
698
478
2555
803
618
633
612
897
677
782
814
1008
898
908
1041
827
620
528
559
950
803
825
761
657
806
848
1008
1115
1075
989
986
865
543
919
930
789
854
812
711
909
950
903
864
996
826
971
728
1089
635
752
832
1237
1902
790
903
464
877
875
711
894
910
1063
1001
975
2835
982
539
874
598
581
600
890
975
1136
906
846
751
846
897
982
871
781
419
592
368
623
533
792
582
672
802
927
765
895
673
789
1130
1340
783
690
832
549
858
788
642
1137
1043
1023
613
675
674
833
784
1019
1415
785
398
974
693
631
531
806
753
854
722
866
3370
1098
996
1070
951
881
631
813
895
883
733
757
643
1169
923
935
720
831
944
846
894
894
432
431
592
1785
511
721
732
582
826
574
727
832
1111
1422
1295
1669
1797
2247
1622
1051
631
619
601
870
955
799
767
1197
838
834
1146
848
829
691
494
898
1049
957
634
2055
657
797
1052
670
651
741
907
961
880
1002
780
432
448
851
1203
758
643
835
990
935
751
813
832
827
1378
987
919
540
402
431
509
799
815
389
763
796
646
934
842
1173
1209
1759
1079
1122
1134
1397
950
717
1759
834
579
827
720
829
621
815
809
814
804
857
830
458
203
572
293
579
878
781
594
758
796
803
833
1013
987
1057
1181
1525
1105
887
494
279
531
970
1279
1996
835
482
930
867
926
755
1006
708
830
793
1282
1131
722
703
731
822
683
725
811
916
987
954
855
880
1195
726
588
662
318
739
938
827
915
874
781
855
3651
729
903
1058
893
445
886
608
448
859
743
787
861
1103
768
845
874
1072
848
849
751
972
672
834
880
2030
605
666
455
927
787
890
668
1017
806
835
909
912
766
545
368
471
768
599
592
432
743
754
730
871
3347
1075
944
1102
1168
1214
720
993
1098
885
989
654
1399
881
889
736
912
1048
891
906
913
759
362
604
3515
593
368
810
758
946
795
969
822
946
838
1055
933
1237
967
880
978
822
765
702
963
835
816
998
742
677
944
786
1113
1022
973
674
753
652
468
674
720
511
1001
701
915
569
828
828
816
827
857
1123
876
1001
1875
1088
1012
1287
1159
1505
1083
1157
770
1073
958
2524
1050
975
569
379
379
760
571
1089
989
720
656
2011
747
862
869
1221
1031
851
833
374
895
543
663
647
917
1122
857
1054
830
758
912
758
869
1004
1003
1104
688
624
671
511
531
387
378
736
718
830
816
1175
1515
1230
1076
1264
965
1123
938
1104
739
527
733
816
1203
1397
1013
1008
951
806
998
1371
1032
609
866
1148
955
667
754
484
754
759
919
849
975
1078
985
1175
1047
1247
1038
960
1067
917
624
962
933
1136
1200
1406
785
1071
971
1137
919
870
695
695
594
709
624
1387
528
814
806
814
798
1044
1118
1057
951
1099
1055
1408
594
980
700
862
640
714
898
994
759
648
849
2106
831
770
819
805
469
656
639
500
691
711
498
767
1087
838
843
1040
955
943
803
1044
722
898
692
829
1249
803
739
877
999
1182
853
891
1077
912
1008
769
1667
522
695
589
640
508
663
685
667
752
801
786
765
959
1040
1044
1023
1122
625
871
884
1117
1023
1046
2494
1019
909
798
918
766
1073
855
1062
897
923
594
951
871
805
903
949
656
890
746
1062
1134
1125
1302
3330
1247
1035
1283
1001
1095
576
1084
765
1152
1023
1158
986
752
886
1042
995
1072
1102
1023
592
814
400
816
578
531
773
576
955
821
773
828
814
1071
1037
1115
976
1099
426
710
608
934
718
767
1023
952
800
758
1072
880
937
848
1047
432
895
427
551
768
576
763
1070
823
815
687
1008
1062
1136
1181
990
899
544
608
816
747
771
797
706
1042
1033
803
826
899
880
847
1409
922
801
353
350
777
598
576
930
643
695
672
896
945
931
956
919
1120
1023
1008
961
916
867
928
914
1291
1157
1247
1136
978
1063
1072
1056
963
981
987
2288
1110
720
803
769
1122
871
1035
884
872
947
871
2263
914
1015
954
784
993
920
1173
904
990
563
911
3856
1130
799
890
962
739
995
807
981
556
432
456
496
784
503
801
602
771
800
925
951
1178
944
1067
836
2478
739
737
752
957
614
876
703
1078
752
863
666
825
911
801
934
885
740
583
731
635
654
1210
1045
1184
1424
786
805
742
779
997
967
874
963
1039
861
1072
1757
1007
774
1041
987
1344
911
822
801
589
950
774
1408
764
528
278
592
353
713
720
582
784
890
1114
1089
1241
1169
1275
1227
1414
1085
939
910
439
1378
863
1410
772
688
1123
990
979
967
898
853
937
943
400
1183
731
898
511
624
772
571
743
686
864
849
960
945
1015
752
976
695
842
592
886
447
832
753
912
920
2032
614
786
730
717
987
624
592
330
278
576
493
570
775
650
822
594
704
586
705
944
896
855
752
817
387
895
709
865
592
768
663
864
814
623
657
832
816
758
887
770
403
402
313
391
926
483
498
759
654
715
1961
1057
1066
999
880
976
703
1013
1101
1085
1115
986
897
816
902
886
828
654
786
689
949
739
848
334
3183
612
511
624
574
803
680
806
854
832
775
966
867
1403
1019
1174
954
1283
938
959
657
965
1072
1310
990
1102
695
789
779
787
886
861
689
499
406
485
683
1659
864
399
810
624
675
823
899
1377
1265
1403
1367
1633
1232
1639
1202
1264
766
862
636
593
713
448
832
786
877
704
831
779
477
662
508
744
550
601
707
661
1193
860
880
621
758
998
887
1131
879
1051
656
613
725
918
834
1401
1379
1346
784
688
848
609
848
918
1406
843
525
678
831
603
704
759
787
768
905
1099
897
1063
947
956
815
880
432
357
520
293
624
352
669
1494
1021
1221
810
1153
909
1019
997
863
593
420
450
539
378
465
656
561
752
813
811
835
719
871
955
833
883
1008
1019
912
1085
967
739
942
770
1219
941
741
947
905
837
723
912
816
375
432
495
710
464
669
3024
603
875
720
624
939
1040
1127
1040
1101
717
993
2000
899
544
903
602
719
642
929
835
623
811
870
874
1168
871
555
341
681
1104
1001
896
912
627
642
750
1398
993
959
951
1120
1120
1082
836
1003
866
1097
855
1136
1002
1293
1076
1058
783
902
964
717
894
677
3630
665
973
1274
1109
1084
827
690
893
709
909
917
3121
1275
1149
1101
827
547
587
752
640
829
672
892
3034
922
869
659
809
1002
1051
855
975
928
720
985
740
1020
672
785
591
763
738
778
714
1008
885
1063
769
1244
964
1105
1015
880
615
1073
974
919
951
1045
665
874
943
836
863
688
960
422
675
320
427
438
511
809
771
720
786
781
739
955
978
983
767
837
803
853
1747
1040
511
800
654
1232
842
1069
759
944
892
833
2112
909
663
474
497
432
571
577
687
755
758
829
912
1041
957
856
886
831
845
836
561
1022
1231
721
538
1424
1008
1076
1072
808
831
855
804
666
973
913
743
1172
914
746
623
724
679
662
863
736
709
846
858
834
758
902
957
976
781
967
867
914
715
806
967
1002
3056
777
737
880
784
854
922
821
880
625
511
587
753
901
595
702
656
766
755
899
849
878
823
938
788
897
997
838
641
896
804
1136
934
1126
852
987
797
833
1168
893
959
654
699
531
546
779
457
448
767
485
718
674
769
927
785
818
752
783
688
582
576
656
528
988
1168
1729
1398
1186
771
752
677
594
897
660
511
592
464
607
448
611
572
527
832
651
844
976
869
1000
1972
849
754
694
752
816
595
719
769
811
714
1077
870
955
880
691
790
656
707
413
372
547
689
626
613
1878
551
583
739
855
779
921
745
933
785
990
798
767
805
947
470
951
742
978
816
817
577
763
716
656
685
769
608
422
316
608
507
414
622
483
602
533
594
683
864
891
801
830
866
835
503
931
682
976
755
767
1775
1045
711
847
723
821
794
713
814
638
432
457
624
485
553
455
646
528
679
638
695
794
670
846
720
816
730
800
465
906
862
882
629
690
657
795
683
502
1872
624
752
759
767
656
475
313
606
485
1006
656
475
816
684
804
715
784
711
863
917
910
630
787
646
1072
805
765
726
971
922
883
657
943
818
752
701
811
1216
467
548
361
398
578
423
653
563
599
597
791
822
1035
880
1121
821
1043
794
775
458
675
478
711
465
1141
731
688
698
705
645
843
875
690
400
450
329
429
823
706
775
646
625
611
749
789
734
976
863
1040
1904
953
971
797
423
762
634
857
901
1107
771
638
2741
796
765
755
907
432
756
352
295
543
1008
604
704
939
809
803
688
876
874
1009
960
939
648
809
735
859
735
895
858
992
815
967
693
771
842
792
906
791
1934
592
481
791
832
647
732
758
677
928
737
921
861
1216
1032
976
956
1121
673
1008
960
1011
672
1031
669
1135
859
658
779
630
888
784
982
878
451
511
355
1008
416
502
406
371
795
558
723
1033
1043
1198
909
1837
1019
1165
890
1105
773
908
575
752
640
922
726
1088
804
796
830
849
869
563
466
432
535
482
530
601
658
766
830
890
749
880
847
813
796
911
588
622
2321
769
667
1039
665
1268
807
1102
710
835
819
748
2819
722
843
368
623
493
988
610
364
648
816
711
811
1158
752
945
977
907
903
918
673
946
825
774
827
816
640
1011
727
909
888
950
885
786
811
913
425
342
1402
378
497
528
670
505
817
573
649
925
869
1002
833
1047
912
976
471
1006
741
832
661
976
860
1072
801
835
779
718
838
747
745
495
491
464
402
470
456
625
569
719
597
768
563
912
782
924
757
802
511
766
2127
899
592
723
640
1037
835
919
558
771
698
688
609
903
879
553
522
495
665
465
880
431
565
554
606
624
883
831
786
887
787
902
785
1004
551
534
670
611
1769
1155
883
890
775
895
751
528
809
561
567
286
564
500
816
710
542
447
796
511
688
784
794
901
811
1050
934
886
918
655
603
867
880
879
678
849
677
661
1077
706
663
679
726
572
645
457
267
401
385
451
401
663
493
757
592
815
693
794
645
750
567
929
638
768
679
908
593
1023
821
957
630
843
687
725
768
529
1152
486
561
791
614
784
481
499
624
455
553
490
609
752
621
651
767
708
506
705
699
848
498
754
580
830
793
757
730
1005
863
814
860
875
577
487
208
489
943
331
629
313
602
421
467
499
657
676
593
639
621
801
810
557
338
720
598
829
880
926
660
525
690
619
635
630
602
453
399
528
639
542
397
567
555
530
2177
738
649
946
775
838
738
639
483
583
623
773
355
1005
391
832
607
832
539
612
606
783
564
689
745
537
442
457
346
354
526
481
603
461
563
688
660
823
2147
832
752
1012
670
790
754
832
544
766
571
783
598
720
529
558
544
463
605
631
560
439
432
445
626
486
667
367
720
446
608
625
665
666
637
816
688
755
2070
753
714
912
582
864
720
1021
714
580
652
576
640
1076
791
823
546
599
505
538
369
534
497
368
688
495
483
752
757
753
661
789
771
800
656
1104
571
887
1267
1103
939
884
601
677
577
558
686
568
701
331
1850
417
499
429
439
464
596
500
637
469
621
692
649
1072
634
671
582
653
491
465
600
672
586
854
756
704
704
929
663
678
603
581
451
625
597
583
725
534
1849
433
453
473
486
582
623
530
681
679
630
700
471
939
863
1562
1209
1282
962
1033
737
579
629
605
635
1118
640
387
387
354
465
472
501
336
556
606
624
699
890
1286
1119
1251
851
933
701
836
470
938
545
905
1104
1248
1007
1005
624
673
687
651
732
623
747
333
618
466
391
703
649
670
699
621
606
689
714
926
800
929
724
589
488
409
262
705
833
651
483
590
634
562
592
944
705
771
641
613
423
330
349
277
398
543
1673
434
615
570
585
656
640
770
688
847
752
855
675
1206
794
1119
716
944
683
820
561
486
583
620
555
1587
697
454
352
427
434
637
678
659
467
449
597
597
786
856
767
977
731
886
695
794
908
767
745
665
871
943
881
909
555
629
699
548
673
627
732
375
407
376
350
423
745
478
624
560
688
822
787
810
800
766
1637
809
685
879
1051
1127
835
929
742
1113
925
805
1648
795
677
565
719
633
527
401
795
480
583
432
545
811
587
638
688
784
816
829
751
897
772
842
703
820
829
862
733
944
1035
1072
773
535
716
529
650
590
1317
461
366
419
410
659
634
527
400
542
592
629
588
979
803
951
763
944
630
859
881
733
635
798
711
979
1047
1040
649
670
699
643
784
747
732
402
322
289
770
268
366
609
713
764
818
866
959
1376
1214
1214
2422
1091
752
815
883
778
524
838
626
898
764
739
2361
814
785
726
898
646
563
364
358
355
463
592
795
957
858
685
827
843
935
1047
892
939
823
953
695
807
591
960
769
993
880
1167
800
605
765
631
702
640
1945
613
427
525
589
544
475
767
432
656
673
841
777
1232
858
939
781
953
730
829
467
829
684
784
602
817
909
1070
685
718
710
674
795
775
812
451
201
522
1225
624
423
689
897
675
675
801
819
1008
789
861
2150
1040
862
730
560
795
838
754
717
987
916
910
739
1041
881
777
865
716
545
471
434
321
474
608
763
606
785
691
726
918
918
931
784
941
999
1057
661
897
1197
1035
739
989
1023
895
807
650
762
683
802
707
1904
652
468
485
587
578
430
683
559
576
868
769
765
1223
858
1043
913
1070
752
925
816
895
674
915
867
1392
1072
1132
719
702
826
825
710
852
861
535
368
1535
561
458
336
704
561
848
775
845
773
756
778
753
882
769
613
708
449
720
853
760
747
1059
789
778
1973
743
693
687
863
701
557
477
313
452
416
681
561
1126
698
667
650
841
884
959
853
848
849
799
794
821
595
861
608
875
944
1253
913
704
822
778
789
771
1861
710
400
255
349
647
626
664
595
763
752
1125
1175
1504
1092
734
839
740
631
814
554
866
663
670
720
787
757
998
745
735
809
710
879
665
770
809
736
877
923
484
593
637
849
714
678
679
713
800
791
798
2175
901
714
877
764
962
768
894
897
1055
926
879
656
1039
810
763
825
772
815
576
693
560
602
780
613
631
1055
710
688
755
779
964
890
1108
911
1087
816
987
990
1013
678
850
842
1112
937
851
801
743
810
788
1372
762
437
535
320
486
675
547
592
707
822
682
594
976
851
923
969
1043
817
960
698
957
725
833
769
1911
917
928
624
800
774
768
709
938
685
538
651
533
759
691
704
464
448
601
641
560
775
990
911
1136
1034
1122
855
1103
543
807
701
821
814
873
941
848
742
860
791
834
666
720
572
541
723
560
589
878
727
357
709
667
612
770
787
1111
919
976
767
450
592
574
1094
929
857
837
929
997
741
706
789
803
821
723
819
790
445
662
833
707
640
934
784
825
870
949
792
1069
847
880
880
959
839
752
494
944
707
967
831
857
1396
1016
636
670
851
716
695
739
793
432
746
691
2033
560
522
822
661
795
784
683
775
914
790
917
965
1418
855
852
1178
1168
772
1103
797
1264
1196
1002
706
740
742
711
734
786
699
365
544
489
405
528
426
1662
846
652
736
841
846
992
890
1040
887
931
623
987
765
843
735
962
916
1131
1002
923
891
988
850
798
1350
683
471
347
357
598
496
607
531
719
764
794
770
1070
848
1023
787
864
647
773
666
874
795
771
642
1235
732
881
715
743
759
826
913
887
816
372
464
404
749
447
439
617
635
689
753
918
863
991
864
951
1829
1002
911
1014
720
898
934
979
784
1237
867
757
2132
789
816
891
861
846
653
581
1095
528
528
528
721
633
699
700
743
725
805
923
851
864
817
639
567
605
637
1062
842
762
759
912
789
676
763
859
846
911
1875
803
623
689
786
767
577
642
685
574
685
721
708
1077
817
793
709
939
893
776
753
999
1102
1005
917
1622
849
1122
787
854
848
784
818
667
830
304
565
240
463
350
747
501
478
645
712
819
789
914
765
881
1897
951
601
863
570
777
947
779
811
881
724
855
650
1057
869
755
827
818
590
404
419
291
550
695
720
641
1037
711
759
854
869
1149
1115
1267
1206
931
378
1661
673
467
592
750
905
1057
965
781
807
845
766
832
869
816
491
645
900
583
530
740
528
682
699
720
3430
1091
1042
1177
1086
1062
1009
930
679
875
602
713
1005
1037
1089
1040
784
785
720
845
938
798
784
387
889
624
576
463
551
600
528
694
913
736
795
774
794
1054
891
1041
897
959
653
650
686
606
592
871
931
1374
771
928
967
912
930
976
618
495
309
544
386
960
1008
981
793
773
879
870
900
927
942
962
934
828
1900
500
575
743
918
814
833
921
848
721
922
851
789
978
945
841
589
727
493
645
485
672
683
640
944
852
897
930
949
1003
982
1021
879
911
950
752
542
822
1296
597
945
760
769
801
866
752
976
926
931
507
331
628
581
561
594
932
568
930
858
976
870
926
887
967
1113
1078
720
762
754
656
1053
790
715
1040
983
943
1008
1116
879
1015
1058
946
731
454
464
858
389
644
625
622
784
751
913
875
867
943
1019
1096
1038
864
960
919
780
887
608
791
1047
1040
867
727
892
890
1422
855
1000
862
504
365
640
511
770
675
618
825
4037
1003
1011
1234
1022
944
918
875
730
679
681
889
2003
762
1008
701
1111
950
863
786
887
976
1066
737
2655
565
586
510
537
483
753
576
594
725
882
768
953
1121
1057
923
938
1006
685
829
451
1175
704
949
906
1315
1006
1119
759
1040
993
897
982
938
992
461
597
807
720
587
1154
779
870
796
816
819
928
841
891
842
1007
839
1283
1175
674
850
757
988
1133
1290
1106
2579
1036
1119
962
1069
1152
1067
560
655
710
636
902
1104
839
976
1005
1134
1045
1120
1075
1019
993
987
1617
1067
944
1071
865
1226
624
919
865
1155
958
919
1227
822
917
1099
982
870
769
895
981
944
752
841
1968
999
976
1100
951
1152
1034
1194
1041
1182
846
990
853
910
655
790
751
1244
1115
985
891
945
900
944
1389
947
759
698
996
1005
974
935
609
879
773
804
3560
1150
1148
1119
1084
1232
1249
1201
945
1104
1084
1105
1079
917
793
1072
925
816
1067
858
992
1004
1006
1611
616
816
907
1035
586
881
767
816
783
747
830
2285
1219
1241
1183
1081
1023
1044
1047
990
646
1085
1607
1059
1327
1106
1015
1089
1168
1174
986
1047
1056
758
752
785
528
543
419
703
555
820
803
978
848
1057
1301
1253
960
1200
900
1136
1023
943
1326
943
621
2406
976
976
747
827
781
752
855
887
776
747
475
1005
1195
692
673
560
854
786
795
1010
765
1087
880
1165
1331
1079
535
640
950
970
727
1098
789
1279
866
899
945
978
758
735
1131
1056
577
841
574
544
835
603
1237
670
784
754
798
987
873
1093
1151
1239
957
1130
1206
1217
1203
1123
637
417
639
694
783
674
816
814
1022
929
918
502
476
693
1135
779
620
845
609
887
2096
1318
981
1136
1107
999
791
805
969
987
765
842
2079
586
706
993
799
783
785
621
853
871
963
903
895
685
749
319
487
387
706
511
979
907
830
760
798
944
819
776
929
735
605
701
382
571
784
742
742
1004
3241
729
801
754
848
747
856
878
496
475
538
474
555
766
688
784
816
1116
1018
1261
959
992
849
761
973
1473
795
1205
795
1070
642
745
798
767
724
703
944
2027
719
874
820
625
622
528
378
549
326
762
615
1030
1060
865
852
1039
969
1114
891
1246
803
901
624
779
914
676
564
908
1040
1200
831
846
907
798
943
814
1413
469
278
675
946
527
651
592
835
682
758
839
784
1022
938
1153
932
1163
951
1105
784
863
611
896
741
1195
720
571
875
683
915
776
979
855
497
547
295
2029
800
845
534
935
863
1071
1023
1207
903
1196
912
1584
971
1034
688
1215
880
1141
881
1007
891
967
820
784
849
841
809
702
903
383
416
527
418
454
432
781
635
807
754
912
879
1072
1086
1051
822
992
567
671
679
735
827
607
624
945
814
1072
722
844
787
674
3151
1008
937
752
645
759
370
334
306
614
671
857
992
1424
1193
1213
703
704
918
889
960
1211
1237
1253
784
1010
728
1174
829
720
923
887
859
833
971
753
679
527
614
240
467
308
699
480
720
656
670
1076
890
1392
1440
1355
1183
800
575
731
478
1233
1393
1820
1533
1639
663
595
1200
943
1319
821
927
367
450
331
399
1109
1033
1767
1695
1819
1130
1135
863
606
792
693
2240
689
369
487
311
743
596
624
534
1021
848
704
605
658
822
708
801
752
679
362
672
339
641
688
669
563
992
744
678
563
813
742
736
680
688
551
408
755
1817
814
695
1038
619
935
627
573
691
607
835
768
923
784
368
373
779
354
662
949
1230
1375
1302
1067
799
805
753
528
779
803
923
1008
668
1081
601
606
600
1077
987
913
848
720
752
803
944
720
791
443
595
483
534
614
832
908
666
621
759
624
700
659
686
752
3019
877
650
818
505
784
372
650
704
779
592
714
499
1100
832
825
880
972
823
741
433
791
774
608
493
751
789
641
651
588
707
832
795
960
1006
911
487
333
1747
374
433
505
496
943
814
746
539
634
896
737
896
899
339
455
435
820
473
834
803
442
784
713
759
602
845
895
875
857
822
1379
1344
1791
1387
1717
1163
785
815
566
898
898
1361
825
960
880
869
437
451
449
625
955
833
1136
553
789
735
898
913
1411
1202
1261
1629
1108
675
622
481
770
363
609
855
523
719
682
1856
609
942
796
795
779
691
528
474
471
389
335
400
657
758
572
587
880
905
961
689
907
951
922
659
688
763
1066
688
901
499
866
924
647
553
635
819
656
2027
649
510
459
750
675
528
865
871
831
693
983
637
849
705
656
720
825
848
433
625
496
544
709
522
578
683
784
816
673
825
657
735
761
720
761
465
555
2630
524
365
464
626
665
753
693
693
785
861
873
786
1378
556
618
487
971
741
1101
785
1097
853
1166
711
1677
1354
1397
853
735
835
365
422
273
426
297
496
1850
896
843
869
775
830
852
896
816
752
661
389
365
786
851
562
640
477
657
675
548
710
707
735
720
855
977
522
733
832
784
565
622
364
528
834
784
604
699
845
746
783
685
594
773
577
880
547
832
635
781
1837
1103
920
891
848
791
627
603
1072
752
818
277
2924
303
403
481
585
725
784
1094
834
989
817
793
662
912
719
900
807
670
353
656
806
631
859
950
629
623
889
954
802
797
883
351
609
407
272
626
464
769
2717
801
752
977
822
990
874
699
757
487
418
503
801
1088
690
784
691
829
781
782
553
618
718
653
720
578
571
419
511
465
522
652
721
624
576
767
576
704
2631
954
831
940
764
923
736
715
446
1009
991
955
913
876
762
446
706
609
817
601
752
594
485
482
319
917
884
1008
704
554
790
622
791
645
841
833
828
1049
1825
1013
990
950
717
638
595
739
806
847
564
563
2746
823
864
863
915
805
480
461
495
370
495
545
785
1087
727
582
785
854
832
995
1022
1169
963
1040
743
1179
528
346
703
617
741
655
751
714
814
687
874
843
599
585
314
964
962
1387
1200
863
726
825
1273
1005
1040
678
719
1373
1515
1937
1403
1401
690
374
614
1765
886
635
767
511
743
766
706
670
649
700
464
439
557
446
278
475
475
586
700
712
653
944
814
1075
875
1106
687
876
654
833
528
736
607
817
846
1011
624
918
743
767
787
592
753
531
347
438
633
483
557
496
673
592
719
595
688
688
640
789
825
771
547
673
2349
701
538
747
636
833
738
695
611
757
701
723
795
1210
641
607
525
655
304
417
461
506
749
727
752
704
861
1088
899
1013
898
831
633
1207
1264
1392
911
870
713
741
799
497
698
587
912
564
752
603
673
336
1595
308
357
646
599
823
873
999
879
1036
875
989
789
753
673
275
619
254
250
688
809
607
756
693
639
688
867
747
810
831
821
675
503
438
307
560
574
441
1531
784
684
1056
977
1221
1047
959
774
880
571
766
1517
1232
981
1122
652
836
749
544
1083
880
990
723
1694
779
511
551
620
492
346
640
590
363
805
567
653
803
899
1005
880
986
953
784
495
832
505
853
525
678
649
747
818
577
689
720
757
869
955
1154
741
855
919
699
576
615
522
497
907
634
839
576
677
638
767
867
566
650
582
978
882
1049
864
1055
1120
902
720
1258
945
631
784
602
634
395
432
367
378
356
601
495
469
867
859
1042
961
1182
1042
1063
1065
1040
721
505
570
853
672
874
639
1065
737
764
592
695
816
618
865
802
421
381
147
532
596
369
496
413
611
593
641
780
734
774
673
863
694
591
295
667
494
729
563
993
881
1011
683
592
710
718
833
743
780
624
459
666
1104
496
523
525
622
802
793
721
757
768
760
812
831
979
793
945
745
919
704
567
445
663
1109
1142
798
1424
734
656
961
743
989
442
475
317
432
261
609
467
449
810
768
1047
987
1061
835
1078
1019
1109
556
354
500
603
467
605
525
665
780
618
690
709
935
901
1847
693
629
505
339
768
630
644
625
619
766
720
827
1073
912
962
837
1107
910
749
412
819
903
689
620
1933
833
731
599
603
679
822
854
647
851
685
289
367
662
785
448
615
639
511
649
588
650
716
783
764
720
990
1023
1136
878
1210
1006
785
777
352
838
543
729
656
685
604
817
790
951
906
832
738
583
624
461
549
401
655
911
590
652
895
897
979
946
791
694
603
1639
863
942
849
642
958
767
935
742
926
854
762
877
1078
662
356
576
304
497
456
582
503
624
711
646
688
777
959
974
1073
1075
989
843
1059
720
875
705
1038
918
1039
951
775
771
806
692
704
960
687
755
336
945
418
570
627
567
669
688
725
802
954
960
976
919
975
752
470
582
871
850
878
1041
775
767
833
721
549
754
768
886
895
682
444
590
237
555
336
636
506
1503
730
674
848
870
890
827
699
752
899
690
819
843
1163
735
781
912
1376
1473
1680
1138
1022
791
657
1104
1124
1187
717
585
289
475
493
799
460
867
700
784
882
953
1099
1040
1138
1033
1113
794
816
613
663
2383
853
855
779
752
507
784
679
789
653
761
763
578
883
403
338
659
557
399
551
689
637
768
1072
1367
1997
1862
1935
1127
757
735
331
437
587
573
569
784
814
721
806
969
907
993
762
830
477
292
468
338
621
1440
669
392
639
797
549
720
961
802
818
754
923
721
1008
1062
1392
1425
1194
492
702
880
1045
1139
1150
2666
704
837
939
1329
1392
949
700
731
320
464
579
1709
707
603
759
1217
1158
932
1057
924
976
794
1166
1966
832
774
656
431
563
786
597
815
966
775
573
864
1002
441
643
618
458
511
497
774
682
811
850
880
1794
875
976
867
971
704
639
682
792
575
805
720
432
919
594
896
819
880
1049
933
1049
878
1050
791
981
1154
374
487
783
548
720
1102
578
754
1039
804
767
1820
1147
679
576
576
303
461
646
671
758
1087
994
854
1044
783
1149
868
784
816
769
504
393
524
594
710
976
1046
1045
790
555
935
855
716
909
832
626
541
1597
401
226
629
991
933
1168
875
566
720
715
887
752
897
902
627
955
367
388
367
273
815
784
673
623
2031
909
870
996
947
961
678
458
938
851
613
912
697
1397
1117
1154
725
558
844
859
837
859
1038
493
352
810
592
257
753
470
431
659
614
761
806
1053
880
816
1088
1196
926
959
875
1206
948
967
658
624
986
1041
820
624
933
876
854
755
915
604
266
280
749
303
1559
656
672
878
862
1023
1101
1243
1200
1203
1155
1126
1306
656
589
323
482
511
480
771
710
494
731
612
1997
854
818
1055
621
736
640
333
531
341
607
884
685
755
685
714
733
768
803
880
661
309
1020
1075
751
1378
560
613
781
869
789
671
1052
938
826
832
754
385
592
719
239
670
610
773
570
715
754
1070
974
976
1239
511
1233
1200
858
676
481
478
354
585
646
906
1662
867
635
757
737
827
706
737
789
326
494
319
473
472
394
511
699
669
701
482
1293
2230
2647
3126
2686
2208
688
692
2421
2447
1047
420
341
708
677
428
727
675
883
722
896
868
534
887
741
753
726
931
602
493
527
775
697
813
794
816
875
960
688
368
880
652
1411
616
541
785
658
800
655
590
979
1155
1015
1063
951
1146
1344
1584
496
432
528
558
1055
1137
1169
678
1157
567
751
767
988
1197
682
625
763
724
571
656
1409
816
1408
1173
592
702
802
630
944
749
1775
1810
1850
897
907
1330
1200
1147
677
539
1126
1497
681
686
817
903
966
1384
1206
1106
327
270
904
1091
749
833
919
907
737
865
701
741
771
644
522
912
914
509
1357
362
622
432
986
1091
1231
1271
1107
971
793
858
1831
949
894
1094
799
354
666
783
681
720
610
682
895
927
898
838
816
555
410
544
432
745
1088
778
500
1648
650
589
603
687
741
887
1200
1383
1251
1159
969
1648
610
319
675
689
659
690
573
878
835
897
863
745
717
534
723
560
559
691
624
753
900
798
710
511
1733
660
691
863
1006
545
687
237
381
286
574
835
861
1313
1002
968
839
752
881
560
797
670
455
426
330
1445
384
603
825
1373
1879
1656
839
577
944
918
1150
2002
1086
466
570
979
771
677
868
1325
1329
1114
750
805
816
763
821
685
823
557
625
788
784
723
849
939
817
795
752
606
1061
786
771
880
769
898
602
560
1433
703
506
925
800
1062
1090
1121
615
622
752
750
1819
753
901
485
633
371
324
370
325
494
688
683
661
1106
1322
2027
1918
2017
1697
1755
1535
1402
862
379
894
496
462
796
1104
1015
765
639
789
821
683
798
1535
576
560
587
725
491
464
528
657
774
663
639
701
851
678
665
796
438
603
1091
1104
1390
1232
1233
1265
1243
754
557
798
910
901
687
924
443
346
211
414
848
731
1199
1416
1968
1905
1887
1159
1138
737
724
733
662
558
579
748
336
467
560
562
592
833
738
805
1801
877
912
807
752
818
329
435
305
438
457
481
524
1075
749
835
835
976
929
794
986
773
583
431
453
2857
461
643
944
918
1262
880
689
642
798
752
707
826
859
370
336
191
371
272
560
715
576
999
964
976
951
814
753
819
721
914
1073
531
653
581
538
683
379
1790
885
651
595
735
865
789
858
927
866
659
835
757
1119
1142
890
535
846
970
706
673
752
732
833
797
2000
973
1216
1216
878
629
368
343
449
743
673
534
642
771
779
790
763
800
619
720
966
878
1088
706
507
1936
691
815
640
795
976
844
1020
919
749
479
765
441
534
382
665
490
555
775
621
715
785
772
771
735
747
545
442
647
603
675
868
908
912
1107
803
640
772
1301
752
756
978
987
939
767
799
575
455
463
447
950
1112
843
827
912
854
691
714
759
546
505
320
422
1534
507
874
589
859
722
627
684
573
831
752
746
894
746
950
984
1040
887
1229
890
946
963
1023
771
903
1308
823
816
762
914
358
554
485
272
477
759
326
735
670
679
618
823
1014
885
908
783
781
763
789
806
1643
322
655
631
1237
1786
2014
1415
817
721
881
848
1398
661
432
480
730
527
521
823
338
718
863
944
1034
1086
1110
1255
1488
1015
816
980
869
985
743
784
1677
953
738
791
565
755
755
637
880
880
769
721
721
432
422
729
966
464
720
945
784
763
957
867
938
838
995
790
694
762
737
777
624
531
707
814
1009
617
2190
659
816
698
765
759
375
323
435
346
619
631
784
856
845
809
747
755
748
833
880
860
871
982
854
378
655
811
566
590
623
809
690
821
1098
940
965
988
1825
689
835
749
454
283
811
372
557
706
976
1058
1408
2032
2081
1366
1041
815
530
406
471
611
369
562
586
933
870
733
630
896
751
883
890
964
682
624
398
1527
272
533
592
619
624
781
894
847
1023
822
808
961
969
750
785
686
844
863
632
437
633
978
784
622
851
752
832
823
828
765
721
672
227
592
553
578
485
1723
675
757
991
1739
2311
1693
945
900
717
443
496
1566
464
859
935
766
1408
1397
1383
1138
1098
880
672
947
813
863
592
545
432
290
340
899
332
895
677
604
1043
987
1001
1023
1062
752
510
818
651
548
1154
1053
1382
1394
1379
1344
1297
1248
776
939
897
971
709
1134
755
1091
843
822
630
541
822
734
897
946
1209
2018
1488
1754
1430
941
405
748
1035
816
527
663
1165
2270
2496
1701
1296
770
793
1249
971
1340
1146
720
1410
447
395
481
532
752
688
749
656
1107
1163
955
2243
870
806
535
944
343
561
1170
1104
880
1023
976
2287
666
978
967
835
1049
832
384
402
944
656
528
680
778
375
838
709
645
857
1008
1023
943
914
927
777
930
799
561
563
501
652
735
922
749
531
800
797
890
951
833
650
464
692
342
541
881
1069
810
1095
883
2397
1005
1099
961
880
1008
1116
832
960
656
591
827
1139
673
349
803
859
742
938
895
1008
1173
1807
1177
1410
647
483
651
463
708
642
983
715
944
581
732
3027
703
822
898
763
837
707
345
465
640
847
805
827
1232
969
1023
975
974
881
880
875
770
482
580
319
3037
390
813
485
831
560
757
851
753
931
725
803
896
934
751
458
453
573
719
885
789
962
775
597
755
848
1018
765
836
592
351
486
527
411
360
433
709
806
3107
769
715
779
822
760
832
912
587
853
395
961
549
1411
714
816
1008
1141
848
662
837
704
758
836
771
1802
493
710
634
900
720
706
446
779
897
726
787
767
1143
878
1040
1022
927
939
1140
1009
741
819
800
1125
956
826
709
820
823
890
926
1033
899
592
977
810
1404
590
762
969
1003
869
944
831
912
945
832
784
3161
548
442
802
720
496
534
747
727
846
785
656
818
1390
709
853
855
750
475
611
755
653
573
940
814
1063
843
847
733
872
731
704
801
666
645
592
713
390
1680
838
1146
1951
1735
1377
649
687
1322
1363
1213
1235
784
673
668
607
611
338
418
613
401
768
880
993
1422
1227
973
865
825
862
528
368
411
678
697
738
2831
1138
1014
1206
832
1074
923
1057
975
1002
807
534
1402
752
833
809
749
374
816
654
754
645
811
773
3094
798
906
617
682
903
540
784
674
832
943
851
931
1038
794
786
832
1006
934
1040
598
582
597
308
365
1883
507
774
801
829
896
1045
846
747
791
848
479
786
797
1009
784
624
970
769
787
852
641
590
731
635
1924
695
850
333
432
630
411
382
704
795
627
741
683
784
797
799
725
811
825
1040
753
578
576
834
549
2608
1157
1389
958
767
728
755
777
729
778
887
538
339
723
751
602
400
674
304
962
833
771
720
945
1045
2946
998
983
880
564
976
821
1057
921
1151
1136
1161
2148
795
874
816
875
889
1014
843
509
667
416
433
2865
678
826
897
764
917
875
849
816
787
794
846
646
890
389
795
1260
963
866
867
727
621
600
775
818
729
971
1059
969
619
442
603
865
1073
637
437
533
631
1161
707
743
946
902
1160
1180
1394
1351
1298
990
716
707
612
880
784
845
759
785
735
1017
912
1031
886
1265
357
206
816
705
464
896
596
705
592
752
1023
1130
1199
1054
1023
995
612
651
524
320
608
502
784
2800
1010
911
688
835
861
753
863
899
887
354
448
400
642
762
679
702
490
720
810
850
905
923
995
1008
1098
765
790
650
754
880
592
1125
624
915
1049
736
786
944
825
768
910
903
606
255
904
656
833
996
661
3152
901
752
705
732
935
753
917
883
894
704
673
478
911
759
773
676
997
755
803
795
845
897
967
802
880
929
560
606
330
401
574
721
561
882
726
851
797
919
1049
877
1086
751
528
308
785
901
727
688
714
899
1625
1070
610
794
919
950
878
1023
989
624
686
542
1968
541
826
459
596
935
734
589
815
861
700
910
911
971
933
719
807
755
926
715
710
883
868
789
960
1072
1169
842
986
846
596
480
353
914
636
922
561
592
1394
816
1039
1270
1105
930
896
1030
1078
782
1135
1163
1776
1703
1583
1238
1200
928
845
847
848
1004
837
1296
1203
1345
1589
1725
1198
774
443
637
537
870
2945
873
1022
1039
1033
938
1151
815
882
835
867
817
2016
860
643
606
1066
1039
871
869
1037
950
656
759
1860
576
373
509
784
597
621
528
576
643
594
699
661
957
738
722
640
579
480
529
911
670
447
720
596
774
1095
814
936
1060
879
823
953
959
552
511
716
688
1002
464
618
493
790
839
670
730
784
779
815
882
1136
870
982
781
866
1200
816
655
982
734
817
677
797
1232
742
773
830
667
381
404
590
594
562
545
458
699
753
878
939
941
916
725
761
957
671
798
1023
659
1844
842
937
662
915
693
756
768
866
857
855
934
854
737
337
592
294
415
720
528
614
704
622
594
635
861
855
783
829
638
648
475
500
371
883
838
463
719
2784
998
927
1019
1014
903
866
826
384
213
619
574
571
630
467
503
673
689
746
833
1067
1011
1116
1009
751
554
463
404
655
745
687
656
1236
1103
921
640
813
1391
882
912
830
705
442
481
336
351
755
1246
657
1164
671
865
953
1173
1357
1231
1135
823
823
527
670
1904
1154
767
766
723
939
729
595
763
862
944
833
1032
830
746
320
453
699
414
597
703
855
962
915
809
2112
720
857
1031
1310
1283
1200
1119
491
444
583
1120
737
647
762
770
610
844
740
942
743
763
665
839
2832
1070
481
475
443
490
642
724
727
798
1006
945
1074
1015
1040
913
720
496
415
565
555
795
768
634
865
927
976
926
745
971
842
1017
485
837
373
647
385
2823
374
720
817
671
976
1071
1093
892
778
881
463
656
601
389
502
816
802
1111
1235
1023
758
780
855
823
973
1013
938
677
678
1063
359
533
765
605
554
877
1977
895
1166
1147
1180
977
931
915
917
827
877
802
1936
995
773
1057
747
730
650
823
798
895
854
871
658
626
357
241
586
912
737
962
1712
1674
2080
1727
1121
999
1104
1360
1198
895
511
438
912
629
1130
884
1275
1226
1110
690
908
817
841
842
893
651
368
395
562
623
603
610
557
731
807
839
834
699
842
808
853
2740
643
571
437
597
478
656
810
955
1175
806
702
790
1090
887
777
981
894
450
586
347
464
507
727
803
2869
781
975
1110
1019
905
875
858
953
1056
1044
943
2503
752
759
849
931
1151
1114
798
689
873
1086
1082
2406
819
511
528
499
688
775
652
882
783
682
806
845
905
881
867
882
830
1190
1015
1120
784
657
629
474
723
938
816
912
738
913
788
875
749
737
802
433
575
673
401
362
648
411
848
888
825
1196
1296
1078
779
1225
914
451
306
735
482
858
832
1195
1293
1379
983
880
762
880
859
759
835
905
659
337
929
555
678
1074
1395
1010
888
829
749
890
850
609
737
726
1079
419
478
729
1085
593
582
688
1041
1011
938
871
914
940
1148
965
1036
749
665
982
1002
771
643
559
729
763
1404
730
816
1007
1022
960
823
784
659
487
794
653
1872
832
759
1091
1386
1682
1443
1503
939
804
943
929
1182
646
722
603
399
449
646
670
844
825
913
1011
2591
895
806
903
944
1215
1494
1535
1375
912
511
804
1486
942
720
709
656
720
947
785
1008
1387
955
640
1585
1190
1600
1403
1008
521
831
727
820
1008
946
967
1270
1104
981
942
637
991
851
749
819
867
845
1002
1808
688
954
832
855
860
860
669
594
671
934
598
566
873
608
677
853
784
804
853
965
977
971
1126
1023
2096
705
1015
1008
1122
995
1137
851
1104
748
838
960
912
953
937
917
433
889
487
480
692
909
947
798
2915
814
693
839
1073
1095
1125
976
894
891
770
470
2355
668
897
837
1180
1162
979
933
1119
1033
954
787
2279
878
789
880
644
685
681
922
660
927
1168
1709
2319
2727
2509
1485
1008
954
964
1831
1836
1491
603
511
784
992
906
711
645
850
863
853
943
963
580
429
2173
337
575
703
995
736
855
787
955
809
1060
1110
879
1004
801
595
465
544
470
617
540
672
820
855
816
1887
1200
1123
1231
981
1062
1203
848
863
511
467
671
900
493
975
783
867
858
981
902
925
1023
1222
1091
2622
902
966
870
973
1159
951
1237
925
714
782
1033
1871
1105
1072
1127
645
469
478
713
511
719
827
583
1403
913
781
757
859
960
912
1050
991
647
309
606
2497
619
581
580
869
1047
970
869
833
896
991
782
1039
1088
610
775
221
620
836
745
658
798
725
839
1091
2320
1286
1133
896
688
542
413
409
402
462
349
567
2007
661
784
585
751
782
861
890
965
1074
766
698
773
1038
833
752
665
825
785
901
738
870
731
869
1004
1968
973
840
820
926
922
800
858
1022
1068
1079
832
1617
891
1040
878
971
879
560
496
618
628
592
899
2722
561
996
686
912
721
898
1360
1575
1388
1195
864
3430
576
677
958
999
569
1093
1079
1043
879
957
1067
1936
1041
849
531
528
304
570
582
927
1147
651
881
1938
880
912
839
889
862
970
1041
926
935
635
659
689
656
699
1058
1249
1248
939
883
851
878
1118
897
896
694
672
601
650
467
543
447
848
708
814
981
945
2521
896
896
1072
676
624
816
729
838
982
743
784
1259
1101
927
987
1071
986
922
1038
854
592
471
582
304
572
752
724
417
807
899
772
953
956
1604
2224
2687
2934
1844
816
643
1348
1169
1063
839
1133
947
913
735
1053
892
954
1226
941
777
506
651
650
599
705
837
1136
876
831
880
809
828
898
954
939
874
646
470
720
402
527
474
468
1035
1045
1059
734
914
831
963
1115
1392
1520
1759
1478
779
432
990
1434
1270
1010
913
1659
710
880
888
946
960
889
715
732
542
541
690
699
701
874
811
800
733
811
798
883
945
1040
1011
549
1407
833
528
636
583
501
509
846
823
773
1013
848
2559
967
807
1023
607
530
926
853
981
1091
1104
1197
1282
1190
883
965
994
1069
752
1055
802
490
823
390
1734
540
755
833
879
965
741
875
942
885
858
938
882
1015
987
974
1535
1440
849
677
749
1059
961
912
938
1097
916
915
954
998
489
622
301
368
329
435
582
2604
752
750
798
912
865
999
964
1108
875
912
894
682
624
627
855
549
799
703
809
912
912
829
930
944
1006
569
406
803
596
1020
1600
1810
1385
963
915
969
3087
781
931
801
1007
1019
577
581
618
438
592
705
603
992
906
1021
937
1237
1199
1147
989
799
877
843
659
593
688
734
784
837
1045
1023
1199
1424
1601
1322
943
951
887
725
848
640
879
622
784
1012
629
980
813
1101
965
881
1008
919
1001
1020
656
1015
806
688
921
850
944
818
907
883
843
955
785
959
845
918
944
2486
752
1013
1136
1222
874
810
1065
1282
1294
1182
1079
1227
885
1010
1023
613
510
790
589
597
1145
919
2111
805
944
815
1079
973
975
1045
794
935
564
365
488
976
693
911
716
759
850
760
725
910
880
848
897
2477
1143
834
637
618
720
437
560
681
887
1127
743
922
1015
822
913
949
1008
1036
729
1190
810
1072
886
813
1186
1235
1072
847
885
943
937
1009
799
1007
448
2228
621
368
709
742
848
802
926
909
912
880
954
976
1163
1041
873
957
993
764
761
1387
1203
1051
1616
1425
1253
976
1109
1034
974
1037
815
572
470
554
1087
2147
724
769
588
803
842
773
816
881
883
976
906
787
774
602
659
1075
838
891
779
1115
971
966
766
848
1435
828
843
929
769
844
382
343
447
493
618
533
766
819
929
953
1104
1309
1215
1220
1117
1259
1872
1814
2875
1152
967
749
927
1245
939
814
722
880
835
909
1409
1094
746
1251
681
349
527
599
880
587
849
819
1906
913
1062
1023
1086
1105
1070
1036
912
657
803
939
1642
1637
1818
1328
950
768
891
939
1034
1153
933
3041
598
622
1093
1209
959
1291
492
970
889
929
1232
2256
1226
1042
905
965
555
656
796
895
704
797
875
1968
1251
1424
1098
880
1068
1102
834
1053
1234
1038
826
825
532
1311
1413
1258
1372
1149
739
762
880
976
1461
989
1049
778
688
656
919
878
1111
914
925
963
1985
821
847
958
769
967
1068
1019
464
594
483
663
1799
598
871
966
1104
1098
1089
1259
1182
943
849
907
1380
541
877
765
431
748
788
612
944
1074
961
918
2393
911
923
922
840
663
532
509
505
511
916
811
876
1377
915
831
847
899
992
1019
916
1083
1023
965
590
1227
679
784
891
1378
1428
1409
881
917
903
1004
967
1105
948
693
1134
588
511
661
682
807
769
852
935
1957
1007
1127
1095
912
943
688
587
497
678
464
490
1949
917
1251
1105
859
815
929
839
976
1134
1051
673
1408
598
598
711
457
511
442
804
733
688
738
880
718
915
963
1147
1200
1095
1199
1071
1255
1377
1777
2000
2061
1155
562
862
786
1001
965
1063
843
974
911
508
434
525
944
1171
1146
925
727
698
881
891
878
1003
1441
656
700
643
605
600
750
784
701
882
848
809
2199
1069
996
795
882
912
469
1040
432
526
875
912
802
891
893
932
971
967
1089
1199
1159
1237
1230
1149
874
802
1104
926
1135
1129
1075
1209
885
799
972
938
1457
1011
772
502
942
613
342
511
564
746
590
783
3888
943
871
945
1003
898
1022
1009
752
848
393
577
2001
1153
861
1111
898
863
700
885
976
990
917
1078
545
463
489
448
411
698
603
511
914
778
881
967
1104
2158
1159
1058
875
465
416
511
382
645
592
560
885
2073
1140
835
1072
1092
1018
1008
1085
958
693
704
492
934
720
605
807
660
1001
931
757
910
834
883
831
2098
985
1067
944
648
417
687
912
868
823
1017
855
2151
861
837
855
1098
1053
970
832
975
1232
1162
1074
3094
542
919
895
830
1008
1090
1203
1072
957
1002
539
458
995
837
860
710
820
1199
1206
1162
1216
1322
1351
1243
961
944
546
684
439
838
561
750
903
718
850
1113
807
761
738
795
761
933
965
787
802
1095
1079
2319
1399
1290
1558
1619
1328
945
942
1074
959
946
4095
1424
1120
889
836
605
560
688
573
836
854
827
1065
1230
987
1086
1225
1059
864
860
880
1018
703
573
2201
845
864
1008
946
1009
1107
955
909
1199
1072
763
915
563
910
791
658
782
862
931
1110
879
949
1104
3566
1123
967
999
809
977
720
479
907
923
889
1282
973
1242
1071
1111
976
975
1011
976
672
789
471
665
4095
635
927
575
1057
816
720
712
791
848
817
851
1003
1390
1346
1087
663
557
587
699
1040
1457
1383
850
3163
1088
1046
1040
1136
880
581
661
907
1103
848
1018
674
720
771
727
726
913
915
775
901
879
634
460
3350
657
862
671
834
727
1061
917
832
821
818
815
906
1117
842
665
765
847
541
877
559
630
868
891
1112
2164
1565
1788
1610
1104
1033
1047
645
545
464
583
816
642
745
1182
976
781
854
882
1200
1298
979
993
745
829
393
714
859
613
869
706
1127
830
928
871
903
1707
1072
959
1099
1055
1009
1050
851
944
785
931
1120
1535
1117
1045
1232
1215
1019
944
1209
1312
661
569
849
647
503
609
842
866
987
1296
1127
1004
768
850
2282
973
819
850
831
906
821
453
529
397
800
909
825
969
939
1040
867
938
848
603
546
493
382
562
362
1327
675
859
736
814
900
833
891
890
966
795
695
836
1061
880
954
752
938
1009
758
827
765
810
1007
896
2506
1063
829
605
592
720
777
645
837
643
943
709
938
990
999
971
1070
1191
1183
881
930
1159
887
1187
615
690
1141
1205
1023
944
932
984
1030
997
1007
1015
2496
593
309
692
912
830
837
784
1088
1003
827
893
2133
943
1065
1205
1136
1301
1114
1298
1286
1121
713
784
1021
1197
951
971
1064
1088
951
848
910
651
663
1847
592
975
1590
1143
498
846
963
793
733
804
986
3461
1014
1201
1119
979
959
875
652
866
577
923
799
3472
866
1001
976
1023
1200
1131
858
580
496
918
997
2096
674
528
797
848
944
1133
1646
2192
2225
2268
2070
1587
491
1495
1965
1631
1175
799
624
934
912
739
3598
939
955
997
1140
1164
899
1185
790
580
765
624
3551
958
1023
976
899
1013
955
1079
1155
1094
994
816
1081
1103
1201
702
981
769
1333
944
1020
967
1079
1102
1188
1147
1019
855
475
977
885
705
585
780
667
826
927
719
917
999
966
823
841
960
562
574
464
656
3495
803
1122
1071
1131
1184
926
1143
948
1021
832
989
976
592
637
310
330
706
1012
524
983
718
729
681
3451
1042
1081
1170
1185
1200
1010
976
1019
826
677
933
1082
1396
1391
1406
1067
910
987
1139
1424
1747
1477
1414
964
437
527
848
544
735
917
823
821
1008
1040
1392
881
976
1008
938
845
923
1250
807
824
806
1145
1438
1037
686
916
849
992
818
1072
763
712
1075
753
1217
645
1226
1010
794
957
1053
1035
999
913
923
811
947
1060
865
1052
848
1090
1151
1007
704
861
917
3762
942
933
1078
1124
1290
1120
523
705
804
604
624
2448
929
784
815
837
721
864
727
915
1120
826
1104
1078
944
816
1035
774
759
1044
1159
1095
906
938
1104
2243
1072
1099
1125
576
631
773
1199
996
815
494
807
871
803
738
1119
1123
1005
803
954
1165
906
961
866
821
722
581
567
1137
1056
1099
1021
901
814
870
932
1163
944
678
273
799
907
609
1207
763
894
797
853
2224
1072
1045
1072
1186
1106
823
842
721
394
722
654
1115
1109
1215
954
815
1085
962
1123
1307
1347
1571
3082
1922
1557
1158
634
1501
1870
2178
2017
1432
1117
3536
1072
1008
1023
1383
1358
1007
669
770
614
1031
1357
1143
1385
1167
859
875
896
923
902
944
754
432
1277
752
1023
847
791
739
699
832
731
827
752
915
3407
1062
827
880
724
652
722
845
816
871
616
1167
1008
1291
872
880
893
950
1325
1377
958
762
421
935
1687
1792
1393
937
1127
1101
753
929
1108
1031
828
979
1633
821
1285
688
558
610
833
1005
1136
1131
1280
939
1198
1125
1038
899
1086
1008
672
487
688
911
793
3670
924
925
755
845
816
1016
1035
895
899
958
816
907
1226
829
854
1168
973
907
1145
1185
1007
1074
1138
3427
983
951
1392
1238
1194
1156
496
554
1018
1284
1523
1450
1264
874
977
1008
1008
1149
1192
935
883
1055
882
585
917
945
807
1284
1312
1004
880
944
1104
1136
1057
913
588
511
787
413
405
933
809
675
839
797
1172
944
857
898
976
1059
1039
732
943
763
688
713
2106
937
1202
1168
1213
1041
1045
1126
1039
1086
1138
1072
1008
889
720
622
667
897
502
812
1104
1002
962
2307
1589
1424
958
976
1147
1304
789
639
1006
639
1195
848
853
1177
1134
1104
1010
1139
1167
976
1136
811
1031
921
850
1012
705
1019
974
1143
912
825
925
944
1392
1053
1072
1124
758
704
1248
1230
976
1322
976
2640
1483
1557
1391
1149
1023
1062
1083
973
727
800
3223
1083
1063
1331
1525
1199
1088
875
770
815
954
901
1136
1050
880
869
915
570
432
787
594
821
898
755
2128
786
1017
878
958
925
1263
1136
865
834
688
583
2274
1104
820
992
944
921
959
1093
996
978
1031
1138
2125
838
863
460
611
733
768
783
1249
1317
1054
878
1777
1007
962
899
1043
629
735
587
523
597
509
770
2290
1056
879
877
883
933
826
944
939
1049
787
1008
3039
983
827
931
964
1199
1326
963
990
971
913
1089
3341
1008
831
651
537
861
1067
528
940
743
924
1353
4045
827
891
1178
1200
1271
1263
1073
1399
1090
789
558
822
800
629
831
966
688
1044
971
911
806
829
814
1155
658
817
976
1090
1103
770
943
684
868
779
877
2270
927
817
853
821
719
939
720
1136
1200
1227
1113
3143
1601
1408
1199
1287
912
1013
894
951
491
475
789
786
1017
1168
1207
973
1135
859
703
912
925
1136
1206
1125
936
867
1127
876
784
1132
918
784
997
867
3251
816
958
830
848
939
1078
663
489
688
867
879
871
1089
762
1089
916
1072
977
1162
1141
1163
1190
1232
3150
1382
815
522
693
655
677
927
1101
836
905
899
2317
919
974
1001
978
608
880
1333
1022
877
674
1308
3699
1775
1391
866
861
958
929
1077
1455
1611
1631
1087
905
560
741
831
465
1057
831
877
825
927
982
976
1037
906
690
541
615
490
606
816
710
601
624
713
3060
1221
1159
1303
1248
1153
1153
1009
511
816
635
769
1087
957
1153
939
1126
902
913
990
927
1023
1147
1011
809
881
766
785
722
786
807
1069
955
882
1072
1123
1189
1168
1087
1141
1150
1043
1362
576
751
676
885
1218
1262
1043
947
1019
1013
987
1110
971
944
825
3110
1419
848
1195
853
997
1107
1069
1072
928
1008
1230
1403
900
903
847
688
782
785
473
880
1033
670
923
1535
926
879
969
848
1008
841
934
605
658
896
420
2853
981
1268
1022
767
781
796
778
815
933
880
959
1041
951
677
799
850
559
613
677
886
853
932
843
958
2290
1078
1067
1118
848
816
977
1232
1391
941
965
592
1732
1918
1883
1381
882
945
1087
1111
1264
1138
1125
1803
831
673
1010
703
722
814
855
784
934
956
989
2341
1008
861
854
637
1013
873
665
813
966
939
1105
3201
898
912
1019
1016
1147
1088
1003
938
1145
786
768
1008
985
811
1175
972
891
807
1041
1094
972
966
1088
766
837
725
711
680
617
922
575
931
1243
957
947
1535
1313
1299
1249
1263
909
589
711
821
830
669
842
976
944
1078
1013
976
967
1067
1063
982
720
677
837
1474
795
882
832
1148
1430
1584
1279
957
816
1235
1411
1425
1094
699
975
656
711
577
750
777
875
1102
1137
1057
1129
907
882
791
891
1023
596
442
421
521
3033
1134
672
713
1062
1107
789
976
1072
894
1052
819
1505
761
849
1069
914
691
1100
959
1248
1106
1051
979
1329
1053
989
1098
1078
643
715
810
624
721
914
993
1200
1133
976
1093
1195
925
981
901
1229
1164
912
2683
903
829
829
674
883
797
1047
981
965
1103
1071
1277
1141
914
793
783
678
713
704
546
979
630
1022
994
949
917
1135
1106
1186
1328
1214
810
656
530
1077
2279
963
1117
932
1151
880
779
973
1010
928
940
986
1376
454
527
832
779
730
978
631
532
1328
1187
1073
2623
976
995
1031
859
944
1260
1487
1215
1071
1013
1043
1656
1591
1177
961
721
1009
1003
790
1007
1079
784
739
723
816
957
583
853
719
1056
846
879
1075
1217
1736
1360
1299
1168
891
1221
1187
1387
960
1037
1200
1776
987
928
1070
1060
949
1009
1243
1298
1342
779
3477
947
837
613
776
829
954
1095
974
917
925
1145
1268
1403
1092
897
694
781
613
826
1307
1181
910
1097
2427
901
1033
1127
1046
924
1023
1356
932
834
833
603
761
737
1105
808
1099
946
954
976
850
1070
954
948
1011
576
400
912
722
825
1007
1010
1302
1236
1264
1043
1103
945
1022
898
893
720
623
733
690
848
618
710
563
950
937
777
961
871
833
910
831
1120
743
713
2306
1032
847
912
971
1007
1099
944
944
1101
970
1001
1464
1020
1125
751
762
923
801
717
659
727
1107
830
1274
913
919
1040
1083
1017
1611
1589
1877
1872
1803
2781
805
805
731
1205
1130
1013
953
1074
1139
1232
1122
1145
723
762
554
634
903
794
784
756
1042
942
1110
990
948
1034
928
893
976
679
586
1018
750
884
656
1107
1655
1886
1615
1135
1105
1046
918
1001
1063
949
656
640
852
807
1122
818
720
1036
898
675
851
897
1394
1023
1057
1045
1037
1011
864
879
679
774
986
951
1043
1041
693
848
1009
1070
1102
1070
1169
846
780
1474
1007
772
928
805
945
863
983
1008
894
962
944
2107
1046
848
1230
1570
1491
1408
999
1123
1107
1195
1274
879
901
1035
992
1093
1158
1351
1207
866
509
405
1040
608
1066
647
834
1330
1200
1143
970
957
1067
909
1023
937
737
782
720
809
1040
887
1135
1174
1061
1040
1161
1079
1009
1018
934
721
622
567
661
510
611
1160
498
880
962
1319
1597
1605
983
867
893
908
842
1188
942
592
826
701
656
866
896
1071
953
1192
1010
2465
1185
1519
1599
1043
825
704
912
596
511
714
906
1239
880
1131
1383
1206
1135
1072
1041
682
842
833
1926
718
889
1014
791
1203
1023
1033
1202
1200
1039
912
1137
1049
1113
1036
903
693
1049
986
1069
803
967
1408
902
1082
1249
1200
1315
1359
1280
1009
1091
839
3539
1233
1085
1209
1461
1212
938
1195
1657
1263
927
3991
938
656
511
794
784
721
754
999
714
1069
960
963
875
997
914
849
811
1107
759
742
614
592
730
894
1638
1392
1163
1152
954
1132
1200
1015
851
957
983
2691
433
597
1040
883
730
661
1011
1063
1045
1093
1104
2233
1294
1093
913
727
592
487
433
671
785
891
970
1462
1021
834
897
1058
1101
1126
1090
1095
885
650
1059
1040
853
711
1062
991
1041
898
944
1015
1047
1168
1610
1040
939
797
826
1406
1410
1409
1168
1041
881
2845
1075
897
965
1088
961
974
992
784
528
761
896
2815
965
811
479
757
959
821
943
913
1023
945
1019
1022
897
1215
785
831
816
720
711
867
784
875
862
1011
1525
991
1034
919
989
574
523
497
719
694
866
885
2011
879
837
718
900
875
1114
1077
1195
1406
1630
1614
1867
1129
508
1139
790
799
903
760
756
995
827
827
1362
1105
796
678
652
931
496
688
945
816
978
894
2012
1005
1120
1095
1073
1109
1105
798
842
558
1088
1770
1968
1419
1348
1046
971
907
1125
1164
976
1398
1022
805
831
1086
715
816
576
986
735
876
1250
1002
1115
1323
1223
1258
1184
999
950
569
848
1076
690
685
1858
1017
986
1017
758
1237
1278
1181
1115
1120
939
656
781
861
1398
972
830
762
816
1111
1194
839
672
719
717
901
1168
1107
1102
929
615
421
589
775
488
646
1357
971
943
1114
945
880
1055
944
538
464
546
381
1105
681
866
576
732
693
794
911
1088
1154
977
959
2082
939
788
641
402
805
1082
795
1198
910
1160
928
2448
1088
1094
1093
1104
1006
816
988
1140
1043
656
951
651
1298
963
959
865
967
977
942
963
1169
899
720
955
944
1196
925
1072
1220
1424
1378
1040
950
1099
2615
846
912
963
598
662
720
751
743
740
723
1227
953
1168
940
1007
730
896
950
988
1095
1167
975
577
811
1270
1135
896
944
1109
945
913
1093
1094
880
891
2847
1072
995
644
550
561
784
895
874
786
868
880
883
1109
867
842
906
912
550
734
485
448
550
731
999
2674
1535
1476
1177
1223
952
1008
1216
1283
727
674
493
621
576
710
703
583
751
879
900
880
934
832
819
2512
1072
626
997
366
912
816
1135
1091
868
1193
1199
2378
1136
1213
1168
1331
1399
1419
1249
1095
1175
961
2867
592
1035
1239
1342
1211
1006
883
872
928
1121
2602
1095
1057
886
667
950
1059
1241
1275
1658
1402
1194
1085
1107
943
1039
944
1023
960
654
559
707
451
1758
715
703
771
893
834
832
775
862
1033
1007
1040
779
802
780
944
1022
951
917
1206
1094
810
704
900
2672
993
906
951
688
766
486
554
640
658
811
1070
1404
1587
1412
1232
843
816
838
905
1011
956
689
832
673
523
752
877
1052
1170
1179
913
955
931
894
983
913
1206
627
496
491
678
527
848
991
848
1049
816
797
2001
944
965
1094
1175
894
833
746
1088
954
881
1162
2165
1371
1046
983
785
1118
1093
1072
1071
1135
911
1968
811
1299
1203
1255
1595
1312
848
1023
889
1133
1011
990
827
929
1063
538
603
667
1072
624
750
1150
1123
1410
1350
942
1057
1095
893
885
958
735
594
712
1913
511
729
707
872
800
834
734
713
713
911
871
875
1122
394
751
789
962
822
914
1323
1776
1749
1472
991
871
845
877
846
912
903
536
444
411
660
400
503
1925
1022
752
839
796
987
1040
1168
1263
1104
899
640
1677
506
448
432
730
529
949
972
784
900
1120
1130
2415
1055
860
720
626
536
897
833
467
949
741
880
848
996
1139
1346
1397
1321
1091
999
1055
919
1311
1017
1644
635
830
948
884
1040
1074
1285
1154
965
915
963
873
709
659
681
508
922
958
739
960
1037
934
1185
2362
1785
1742
1557
1296
1144
1040
635
727
559
849
2864
859
848
951
728
784
839
912
1120
927
914
677
412
639
541
503
499
591
1008
926
862
958
873
1009
1002
2417
1170
1042
795
828
880
883
823
943
653
1008
702
1407
960
1291
1424
1351
1163
1223
726
765
965
803
865
599
1068
543
1023
817
919
816
832
857
842
944
1184
1422
1006
737
1040
817
1071
1009
1330
1179
1314
1104
2310
1264
1165
1023
1008
935
669
783
1103
1189
1040
2613
817
1078
1034
1104
1225
1325
1239
1308
1113
852
3039
751
918
880
914
483
814
890
1346
1155
1045
1159
1826
1007
1093
1201
949
576
464
361
423
733
672
603
859
919
857
843
1037
948
918
942
1035
893
526
698
2233
1227
960
930
827
831
902
881
784
957
897
988
885
933
615
485
605
432
478
608
663
611
660
783
716
3814
930
933
927
1067
1200
1009
1087
662
964
608
670
2273
1663
1510
1104
891
1042
950
1138
1120
917
798
496
511
949
674
755
720
886
736
1008
1015
1133
1177
1123
1263
944
838
788
478
608
555
750
880
1053
714
1101
1090
724
879
902
916
1002
891
1114
681
733
1200
1385
1232
894
572
641
912
894
812
752
1052
1066
1111
1150
1212
971
603
709
1054
1115
1252
1179
1269
1407
1217
1187
1216
1290
1066
864
891
731
709
816
976
878
3521
819
688
1072
1035
783
908
746
859
927
935
845
784
642
603
883
565
659
592
1227
1378
1317
981
1069
1055
1210
1007
1278
1069
752
754
1006
1008
578
780
811
1662
1105
995
826
869
929
939
821
979
944
1020
1035
2343
974
1271
1106
1125
1328
1395
1130
1057
970
1109
3458
1129
1271
1076
1255
974
835
848
1247
1022
685
989
1019
1005
1039
1247
1257
1139
1199
1019
928
1094
1315
1316
1043
773
898
1073
1110
1072
887
1090
1110
1016
1166
941
571
595
666
747
976
1037
963
765
910
828
960
889
925
991
939
1110
861
704
762
711
662
760
1535
659
624
816
1072
759
784
789
915
832
1016
835
640
816
303
419
989
938
682
798
747
963
1019
1058
978
1520
917
1103
1066
889
450
659
505
558
623
574
707
2163
1047
887
1074
870
935
1055
914
595
495
667
879
2237
1174
806
624
899
791
993
926
819
919
998
1064
1054
1158
1095
1408
1216
1031
998
1150
1296
1088
1183
1073
1457
1062
1017
890
1040
828
555
976
974
1121
721
928
757
1203
1131
1202
1229
1145
943
1014
1110
1187
3689
511
511
630
1051
669
960
969
1216
1150
1041
1196
1395
1010
976
1072
1103
771
781
873
665
862
657
772
1232
1158
1093
919
907
965
973
965
794
716
615
400
955
575
634
723
779
976
946
931
1047
886
1082
783
2780
985
707
574
1118
893
1274
672
411
577
720
788
3550
1051
858
927
816
999
1050
644
819
909
1200
720
1333
796
1062
992
993
787
959
842
895
852
969
674
639
1426
895
739
832
1022
1394
990
831
781
907
1101
1040
1415
1100
1065
987
1193
810
848
910
1205
1081
1017
2704
1117
943
1106
958
848
1017
859
1233
1035
857
1207
1501
1145
1185
921
955
1158
943
893
934
923
976
4095
1035
656
704
730
915
577
1063
896
1079
1614
1405
2701
1302
1040
1023
866
1129
1040
691
464
905
847
591
809
809
529
781
793
818
1047
960
1015
1289
1141
1023
877
783
370
424
560
591
1023
1037
1126
1114
816
1007
867
976
880
843
693
769
560
767
619
947
1183
782
930
783
757
727
916
846
751
967
910
680
602
1023
563
1137
1184
1391
1183
1195
912
878
1097
1046
983
848
1068
881
618
793
433
693
911
1073
850
752
957
1063
2343
1374
1016
960
875
1040
778
825
466
861
784
883
1397
891
1390
1297
1194
917
913
818
929
1179
935
735
1019
781
544
615
643
849
940
868
1066
949
1085
922
1535
1072
1293
1207
673
679
591
925
749
882
1008
911
1365
1008
758
1023
1069
877
861
1019
816
466
405
387
464
1041
1038
633
863
960
913
887
953
810
806
867
1442
726
1023
661
752
650
718
669
775
811
959
757
3457
1173
967
865
938
944
688
638
563
442
486
732
651
806
879
784
917
1264
1441
1831
1859
1490
1063
727
806
618
599
1095
976
937
954
955
939
922
1110
1192
1269
1213
1057
1392
1859
1636
1253
937
712
622
896
1058
1563
1034
1009
1168
1050
1008
1126
1092
1009
914
1046
1556
569
491
1200
1195
1185
1083
987
1264
1114
1136
1797
1041
718
530
753
767
1182
732
607
583
993
923
1391
870
955
1065
881
912
1104
1097
950
874
1264
1039
1104
753
794
914
942
843
865
882
790
973
705
848
1840
735
633
972
695
944
712
609
783
805
643
755
885
1168
1065
1043
1073
1015
1031
815
973
559
854
422
3713
935
930
829
1144
976
923
909
937
672
816
807
416
912
1136
1255
1330
1200
1258
1081
847
980
1083
982
3303
1009
708
783
1050
772
1056
980
938
989
1087
1158
1377
1126
969
1062
1091
1158
946
826
688
544
707
849
1037
751
1037
1179
897
944
893
816
1148
1168
1144
994
1395
1246
941
1104
1350
1671
1474
1371
1275
1403
1061
1088
1083
1011
1266
1419
1579
1680
1574
1240
976
919
653
930
897
983
983
1013
977
1187
1570
1613
1552
1867
1073
564
554
562
803
573
920
875
853
865
928
2345
912
892
1045
560
652
464
646
789
947
837
699
1040
861
1010
986
906
966
1090
1366
1262
922
864
810
3345
858
716
961
1195
1399
1247
896
821
1040
959
832
2235
658
470
390
725
903
907
700
816
855
848
925
773
1076
870
998
966
1082
1169
1141
891
949
702
1262
976
1152
903
1088
1053
1088
1199
1147
1142
880
1104
690
1012
765
597
505
704
976
738
1046
826
823
1001
1077
1698
998
978
779
715
803
624
763
862
931
1169
1122
2737
947
1004
1078
1018
1077
989
1042
611
717
816
489
667
1071
1038
720
903
1104
1360
1070
878
887
1017
3629
944
1316
951
775
464
509
421
890
768
1072
1219
1354
883
845
847
931
874
934
920
1088
911
726
849
811
1097
1184
1072
791
693
816
888
928
924
969
670
464
698
998
1004
1109
1142
698
1142
962
779
862
1136
1042
1078
1006
1150
698
965
752
898
488
660
736
1062
944
1015
1145
1294
1249
1393
1187
1167
897
687
624
471
1060
925
970
769
1203
1097
1146
912
1039
962
1014
976
975
689
857
1081
1065
996
582
1117
880
931
1101
1152
1387
1554
1131
1045
870
885
906
731
510
853
880
2224
869
1377
1374
1306
1015
949
861
914
897
912
880
1109
576
944
1080
733
992
848
911
976
909
774
751
3338
1031
945
930
747
662
1328
1194
822
536
545
537
3376
957
787
821
967
976
1059
1137
1008
656
752
652
3159
812
543
701
818
976
960
844
943
1090
954
1074
1021
1408
1293
1392
1216
1231
928
860
990
1376
1248
1396
1565
1600
1637
1499
1146
1000
720
900
893
1153
1328
2295
1413
1117
1249
1163
1077
839
886
1054
972
1145
2337
1270
1243
1247
848
818
829
750
1083
1085
1023
1089
1132
1023
894
891
885
801
659
450
683
849
740
1042
667
995
963
928
880
799
1076
1111
976
1040
661
858
1281
1226
1122
1136
948
786
1102
970
825
711
1041
3631
867
880
882
546
576
965
521
801
788
576
780
729
1090
763
848
919
1021
976
1054
976
758
658
976
1136
1389
1349
1243
1213
1014
963
865
994
1073
986
1185
3486
1037
1206
973
993
842
550
943
781
835
1008
780
2199
1073
1155
1114
1111
1034
675
995
764
995
960
1047
1183
1200
1409
1287
1038
1003
1038
979
1010
1023
960
934
598
1122
965
607
798
1098
1008
853
939
848
1008
1200
973
912
1119
977
652
931
664
628
898
935
834
1563
890
834
871
1003
963
915
887
1001
732
559
1129
2075
1062
663
934
807
883
851
687
891
949
974
839
3122
1189
784
797
560
507
647
1051
559
766
903
809
767
1141
1283
1038
1313
1165
851
838
838
563
502
657
3217
765
1189
976
890
1061
1137
1119
1046
1042
1067
792
1067
873
1088
976
974
1088
1057
1023
891
783
870
3233
1239
1275
1135
958
688
650
787
986
1189
944
763
2515
1104
1005
785
1035
983
1008
1055
1089
1005
976
880
770
834
1366
1127
1008
1167
1403
1306
1119
1203
935
1408
1081
944
573
705
877
784
855
720
863
790
993
1393
954
1044
942
895
933
879
1040
816
690
1078
592
1403
1051
848
1163
1174
1322
1171
1110
1136
990
866
2834
813
663
716
843
851
896
854
688
845
669
811
784
1121
841
819
861
960
797
871
655
918
833
845
773
2986
1324
1109
976
886
880
889
944
906
925
776
439
753
918
797
1022
746
808
827
990
915
954
1085
1162
1136
1399
1009
1082
1089
972
675
912
753
813
939
1127
996
906
1055
1040
1018
1168
1047
691
859
885
1392
993
1618
1094
1175
1086
946
990
914
1012
1062
1187
1263
1107
941
683
655
579
783
720
956
940
1023
1169
1019
1122
1063
989
953
946
754
606
394
835
453
783
802
778
1134
940
875
867
940
1078
1126
1296
1425
1374
1022
3025
1115
898
1008
729
976
1255
1414
963
880
798
976
1278
917
751
616
829
399
548
761
736
602
748
752
3185
921
1042
862
965
992
1008
755
630
635
895
794
647
867
816
1154
1377
1369
1135
1146
1015
912
1203
1163
1712
712
623
852
698
1186
691
995
1215
964
858
1014
1525
1184
1152
1045
944
951
870
1040
898
1104
1147
1968
2054
1866
1694
1168
1094
979
1031
958
1021
777
858
685
746
917
965
857
762
1066
1046
1078
1085
1054
1035
1077
910
974
825
828
1010
805
1147
897
961
940
2551
932
881
946
952
894
1075
1058
915
575
558
899
3009
1373
1370
958
825
976
1173
1255
993
948
1005
1006
1628
701
543
490
725
1011
995
1339
1168
1121
1093
707
908
847
1081
912
1136
1016
879
502
702
621
766
450
813
738
909
945
897
928
927
1098
1037
1104
1120
951
969
1344
1207
853
780
791
751
896
900
855
1007
991
1178
1083
1132
702
624
789
942
631
816
732
755
1329
1489
834
846
1037
1008
1008
1151
1147
912
1131
885
2714
1063
1081
1167
1315
1499
1556
1373
1189
1135
1091
3350
1061
1105
946
689
593
757
1102
1190
1047
976
880
1088
870
997
938
1039
933
1075
683
528
463
503
811
1023
1111
1218
1085
1182
941
921
1093
982
1021
1200
1695
930
1059
695
506
470
724
679
679
1088
950
802
1420
946
898
764
880
1056
533
395
644
818
772
1017
2751
1392
1360
1328
1123
1131
1023
976
867
1085
897
926
415
934
571
571
546
752
890
975
912
894
869
957
2149
915
1050
1206
1197
1107
995
1249
1222
1471
1707
1609
1722
1202
1075
1056
890
1007
1040
1124
794
1008
734
1223
763
1120
936
1136
1022
848
1015
1079
1174
1122
1267
1072
1008
827
944
890
919
736
784
742
1108
1123
1003
961
1131
1043
1060
1155
1183
814
1230
509
726
528
697
1009
1042
991
751
825
820
882
978
925
946
1429
1237
1130
1374
1271
1175
1348
1375
1286
1297
1267
2297
1172
1143
997
1220
1699
2424
2181
1402
752
627
2352
1017
622
816
900
821
741
877
1021
896
1072
1071
1319
982
779
975
894
1386
765
1071
1046
1186
894
1049
1265
1056
1021
1081
1008
806
880
912
714
747
839
1413
965
839
993
830
1045
1119
1104
1161
1136
931
908
844
784
918
1093
1393
1168
1279
1386
1264
1099
1123
3234
1088
1136
1153
839
752
1523
682
1190
818
705
2943
1103
786
820
1091
1171
1088
1159
1169
1087
898
752
1061
880
707
678
1136
1177
1246
1326
935
1041
1104
2559
1118
1199
788
653
781
511
698
769
779
700
1182
2546
881
911
947
1043
819
1003
1174
909
957
970
1088
1621
1199
1088
1205
1233
1022
862
1056
1102
1102
1270
1779
1252
560
688
693
786
955
1140
1373
1770
1687
1605
1104
975
922
890
1013
1195
930
931
1008
1002
1072
1650
1115
1242
1421
1388
1254
1155
1316
1209
1239
1215
1584
848
1120
511
816
1023
1046
1113
922
1114
944
1462
1072
1044
1136
1175
1050
1139
919
967
1107
698
1649
1003
896
976
1015
932
898
1149
1215
1166
1089
999
1091
798
1328
493
690
1237
1260
821
1141
1031
930
1563
1036
1096
1058
978
1105
818
720
935
930
923
903
1124
1181
1228
1031
1013
1136
1119
1070
976
1150
1148
1110
891
563
931
511
576
540
1023
944
892
855
981
1519
1312
1294
1307
994
656
887
1267
1078
1193
886
966
1232
1130
971
994
1110
995
1120
1200
1215
909
1081
1230
938
966
693
1051
782
1069
900
1008
1073
1051
1077
1278
1149
1360
1040
1040
1248
1136
1238
735
927
927
1383
1296
1006
1275
1074
1175
1301
1296
1023
647
731
1087
912
1034
752
846
927
1073
965
1101
1047
1054
3264
1078
1233
1077
1123
755
853
784
1203
895
848
1040
1205
871
922
1100
1023
1195
1152
1191
1087
1040
493
1398
852
614
753
959
1056
1098
801
939
903
972
1071
1423
956
795
879
881
919
790
1129
843
1082
849
870
1093
1021
1038
1090
1053
1001
735
636
969
560
797
3034
764
937
1102
873
816
977
1005
1088
1052
949
1092
2195
1023
1184
1005
1243
1109
1089
1199
1311
1124
885
2583
1134
880
983
1040
927
912
843
755
940
890
833
1392
1251
1149
889
840
975
875
1023
1038
1104
963
978
1040
754
753
880
941
1034
1122
1136
1001
1168
1167
2896
1042
976
1100
650
409
773
1038
1165
922
944
1119
1273
1095
1130
1271
1280
1408
1453
1403
1417
1311
1040
727
571
676
766
653
1023
901
1008
778
917
1019
1003
1180
1307
967
707
968
799
765
595
818
843
800
896
1120
1013
1086
1018
884
824
955
752
917
655
359
563
893
889
1255
1309
987
749
951
1115
848
758
1078
811
854
1053
672
934
1039
880
918
704
998
930
1008
1133
1232
897
975
1088
956
928
629
722
810
880
1023
997
1610
1401
1038
1158
1168
1124
1106
1275
1221
840
893
1411
474
974
1140
1132
1150
995
865
1117
1191
1168
1070
1189
1046
1136
912
1101
801
627
1040
1104
897
1311
1504
1231
1146
1287
1088
1031
1118
1040
775
832
585
761
594
833
816
938
1174
1136
803
912
981
1043
1088
1135
1045
827
681
775
631
947
1046
995
1067
1246
1348
1104
1225
1145
1182
1167
1152
805
810
459
719
802
733
804
832
1145
1069
947
768
909
895
978
926
970
1985
723
654
602
783
1034
1014
1101
1396
1277
938
1037
1405
1014
1040
1104
1115
547
688
721
711
644
592
2477
816
852
957
882
961
1005
1031
980
1256
1035
1199
2920
816
1091
921
1294
1227
1571
1360
1073
957
1088
965
1150
1187
1218
641
864
1046
577
875
494
899
879
2202
856
1068
1103
1095
1141
1190
1214
1179
1087
1151
967
1063
1011
1208
1273
1184
1104
1056
819
944
1059
1037
1022
1008
892
654
673
707
647
847
1115
626
933
2122
871
968
899
1019
1008
1077
1040
955
882
1090
738
1093
939
944
1183
1283
1308
981
1008
1296
1277
1104
3301
1023
1131
1043
762
468
1181
1424
1377
1753
1421
4095
816
972
989
1071
1314
1502
1440
972
1294
847
838
1154
940
991
1269
1123
1051
944
1097
1072
986
1067
2207
714
589
1035
535
539
529
1081
618
866
961
726
2087
978
1019
994
1105
1168
882
688
880
958
911
1166
2150
1405
1299
1121
822
1062
1212
1158
1245
1333
1090
2362
643
1107
948
530
651
994
848
901
848
811
944
2194
1013
1008
1141
765
994
1088
917
820
895
656
739
1360
1021
737
1036
1182
1221
1036
1053
1233
791
614
3278
682
898
715
547
948
995
859
864
970
877
963
1005
1242
826
751
797
815
1015
921
1059
1057
1078
962
912
894
1074
984
982
1013
1045
547
502
401
350
461
735
955
970
974
663
880
1189
1247
1040
943
940
991
827
720
848
1353
1371
1409
1280
1420
1052
813
887
1124
4095
1089
1074
1084
816
720
563
459
592
1075
1156
819
1405
1130
1155
1236
1145
1181
1054
1011
1207
1106
944
1906
1079
1219
1088
1312
1699
1893
1502
1139
1145
980
1616
928
1209
1185
530
633
795
1344
1125
1159
935
1682
823
864
977
815
882
1019
1034
934
807
752
841
2368
1469
1277
1104
912
1088
1239
1263
1069
1096
931
2591
1270
1091
667
464
879
752
836
762
607
378
853
2235
751
1102
1417
1265
1131
1011
852
586
397
839
719
1269
979
1040
959
935
883
759
1043
934
1015
1211
1057
1119
558
522
831
384
716
1008
810
1023
832
794
1157
1500
1278
1072
1017
1014
687
750
925
811
413
951
2165
815
903
1088
949
932
1174
1079
1114
1037
1135
798
1485
1039
1326
1178
1409
1199
991
938
1307
935
1046
2201
1063
1010
930
832
722
899
930
1175
1330
1363
848
1415
939
1082
1130
1263
1181
989
960
1047
606
644
2726
718
857
752
903
624
1095
831
915
962
997
901
975
1333
1181
1126
762
1346
965
1219
1232
1237
1328
1002
1392
720
1058
1047
963
898
961
933
747
490
592
586
720
868
754
983
778
863
883
1104
1138
1247
1306
1141
1614
1558
1481
1487
1207
802
948
613
843
955
796
4048
1008
1094
1056
1131
1216
768
968
467
757
720
906
1493
963
1047
899
796
996
895
1023
976
929
956
727
2130
579
731
723
927
1006
1392
1041
1184
857
1019
990
1392
1056
1119
625
569
953
950
816
678
882
831
1238
1602
1195
1263
1069
1072
944
933
1062
710
911
624
1622
987
770
806
1087
1235
1250
961
1063
1330
1017
1251
1373
910
795
911
586
670
557
810
715
849
918
1045
2263
1077
1105
896
1062
1296
1350
945
369
783
1131
614
723
863
1438
1571
1744
1712
1635
1399
1104
999
1034
874
948
1321
1483
1490
1274
810
849
976
951
976
953
911
945
880
971
967
939
1341
560
877
815
909
992
2058
1253
1424
1267
1471
1294
1108
1040
1104
790
991
1945
636
601
845
866
812
1111
1055
773
816
1148
1152
2611
1212
1345
1418
1286
1392
1136
1209
1203
1006
1154
2628
1339
971
1207
1165
1060
1378
1139
1034
801
997
3264
618
838
996
848
1008
1398
1585
1009
915
880
1066
1063
995
1287
1511
1648
1383
985
784
672
690
903
2166
1054
1217
1079
1073
1048
1117
938
583
566
725
477
966
1053
931
720
1033
1038
1207
1105
970
944
1086
2327
964
436
818
2091
3014
2960
2266
1380
1008
1330
1844
1924
1185
1072
961
871
940
586
603
817
812
1091
3763
1313
1105
1093
864
867
816
999
815
1104
1280
1672
1746
1409
635
962
834
1313
861
801
855
897
799
955
1185
1087
1061
1131
1049
961
967
849
1051
890
829
1775
857
1051
998
895
1023
1053
1001
1150
1575
1577
1334
1181
823
1245
1093
1351
982
1102
794
1023
1383
1198
1523
947
1134
1019
1161
677
585
835
674
1046
679
1623
751
853
891
881
1077
1108
907
971
809
1202
1204
1965
817
535
642
810
1045
871
971
1126
1251
1253
1071
1904
899
829
929
1335
1058
742
511
960
688
874
894
1403
722
767
877
922
1019
1037
543
1009
950
737
480
1413
1142
1523
1908
1989
1369
1231
1571
1441
1201
992
2494
1206
1725
1811
1412
1055
1102
699
1168
976
1005
2673
880
902
1010
960
966
816
830
608
1021
1066
1339
1975
1392
1360
1417
1118
1114
1131
942
1170
1050
1101
818
691
822
566
868
832
865
631
726
1104
819
923
1381
914
960
908
932
946
1154
880
759
895
1213
911
2715
1522
1118
958
970
817
1078
979
1056
752
743
625
1019
718
554
714
629
994
827
779
1015
1015
973
1101
2221
1104
587
546
1017
673
656
737
751
1150
1596
1090
1038
870
1131
933
1079
986
1040
484
336
1042
720
1329
833
938
766
642
847
816
1064
1118
1162
1135
1120
3470
971
659
1051
851
879
752
782
987
1229
1011
939
1667
1167
1130
1233
1091
845
562
1060
502
590
566
809
1115
1410
1470
999
912
1062
912
861
941
1023
557
1353
1389
1342
1389
1903
1813
1815
1317
1040
792
1107
1095
1200
1200
1197
807
897
1243
363
477
669
1301
960
1394
991
1161
1175
1010
976
1006
1200
1166
902
844
2181
838
714
880
976
1584
2135
2150
1715
1387
1171
867
1415
879
1014
544
839
658
618
582
710
832
1360
1626
1713
899
861
912
1379
1488
1330
1039
915
460
845
3552
757
873
723
692
989
890
864
1131
1449
1897
2257
2240
1826
864
927
1650
1473
880
574
732
795
1021
770
1630
1094
838
803
1037
882
1095
1191
903
473
900
1150
1328
1069
774
990
898
961
958
1003
1043
1034
816
869
1152
635
794
993
791
940
880
1309
1088
1003
963
1037
1050
1159
985
691
542
803
865
539
1020
695
992
3606
930
1189
1880
1865
1451
1294
1006
927
907
961
970
1265
1161
1136
688
1143
1115
1055
785
954
914
831
3603
1035
802
1302
869
1165
976
1038
687
938
1302
1247
1492
1163
1390
1205
793
875
906
599
752
554
431
711
1258
720
693
850
976
662
817
1008
1200
1127
1356
1104
693
656
755
448
598
811
709
710
908
993
915
1111
2208
1270
1388
1267
614
735
837
879
915
967
1040
809
1072
1071
851
955
1003
990
1132
1191
1407
1199
1008
3375
1270
1245
959
952
1371
1139
1307
925
1266
1306
1344
1121
1079
816
738
835
800
1125
631
688
653
1167
2189
953
962
1054
902
1111
995
1163
1395
1715
2123
2131
1552
944
610
1292
1474
1194
951
801
999
1130
1155
1489
1038
960
1134
528
571
1013
848
880
666
881
874
994
929
955
1214
1214
970
1135
1366
1392
945
1379
946
1244
969
1002
690
784
885
1060
1035
960
991
962
3489
814
807
331
587
1069
663
705
860
798
704
806
1166
1402
971
989
1072
828
780
1527
727
812
561
805
746
1291
976
957
1278
1345
1094
927
1047
1242
982
1152
3632
1130
818
1169
1119
1031
1296
1148
1013
1023
1073
1078
904
1070
912
1114
1257
1305
1382
860
1069
1153
1802
2087
1817
1389
890
1224
1887
1983
1562
1174
704
801
797
1115
753
1287
818
684
900
959
967
791
1127
1381
1741
1916
1680
1229
649
663
547
566
768
849
860
2423
848
880
1043
998
1040
1007
1050
912
784
974
1001
1392
661
575
762
868
854
758
1023
1023
1135
1051
999
1067
704
1079
1106
1270
1221
1083
1122
1099
880
673
1392
816
1071
1203
1147
1402
701
1038
978
1255
1152
2765
788
1141
1007
1022
842
1104
1222
1206
1264
1249
3350
1401
1675
1438
1613
1383
974
863
1195
862
817
3540
1089
1039
976
1066
1178
679
881
487
1148
1210
880
1389
884
1489
1823
1402
1008
1013
1003
1298
1467
1552
2091
1398
830
699
875
983
1021
1167
1068
1015
976
3474
893
913
993
1095
727
654
661
594
798
693
960
573
1019
807
993
1094
1269
1283
986
951
1134
1750
2011
3634
669
1248
1643
1264
1178
965
973
687
927
974
1111
1220
1072
832
570
577
1170
912
789
1021
912
730
944
1358
1079
907
859
997
1059
1386
1739
1553
1398
864
2086
448
899
863
1247
1422
1268
958
944
976
994
877
1439
639
867
688
749
861
745
698
752
912
1360
1974
2481
1565
1116
1169
1710
1919
1246
1107
919
667
752
757
1235
1212
1136
1297
1063
1289
1235
1139
958
961
819
767
820
496
942
613
932
1046
1046
859
976
1023
1022
1408
1310
1253
1159
1167
847
851
890
966
1275
1303
2241
1084
1181
765
1073
1197
993
1183
1093
1620
1731
4095
875
446
544
750
609
921
1101
816
843
770
933
3326
900
1118
773
741
917
528
1131
1323
1391
1021
1167
2127
1456
1535
1627
979
1072
959
1038
532
736
438
2979
726
862
879
497
830
950
813
945
803
944
1034
1300
1779
1975
2143
1602
1158
510
787
707
1308
1303
1243
1659
933
985
1382
1235
1154
1083
918
963
463
599
814
1023
898
1082
898
880
918
1300
1440
1696
1383
1115
3328
1297
1554
1493
1405
1107
986
1359
1552
1686
1631
3675
1010
994
1174
1107
1215
573
375
854
734
881
1044
1264
1233
917
918
853
885
935
895
923
1118
644
640
666
936
1066
1061
919
1103
1206
1007
911
1155
1347
2420
1046
1068
991
814
1082
676
502
589
706
1250
1514
2035
2353
2071
1200
892
1094
1199
1166
1347
899
870
845
973
798
919
623
1095
1195
1089
791
1003
944
1034
1295
1127
1017
1007
926
931
755
895
831
703
976
896
1131
951
1325
1383
1297
1072
1088
1168
817
912
611
1392
1049
1093
1087
1099
1119
1012
1172
1407
1143
1139
2542
1270
670
793
479
816
1625
1731
1177
1105
1180
3958
919
898
1042
1123
1267
1338
1399
1158
1179
830
1167
1072
877
1061
1384
1807
2161
1915
1667
1079
952
1375
1090
786
527
833
635
591
729
740
687
683
871
827
996
976
903
933
946
938
743
561
1056
1135
1145
1216
1433
2030
2222
2125
1535
1405
1187
894
1081
1083
995
1406
718
569
642
1070
1019
950
1499
1091
861
814
3487
1055
1053
1199
1099
718
989
985
739
836
979
1296
2420
1734
1616
1323
1129
1094
1137
1056
999
1095
747
2915
384
555
674
921
984
1008
1186
1034
1020
1067
1056
1328
1216
1366
1038
801
683
878
966
1154
1152
1328
1947
1634
1274
1030
1088
1077
1230
1338
1360
899
714
2147
598
890
1073
755
714
1022
1061
765
926
933
1023
1264
1101
1071
924
848
1399
1246
1776
1582
1431
1565
1761
1051
923
1010
1124
1098
1168
1077
901
570
752
1919
1599
1649
1282
921
1020
921
949
865
878
1015
1128
1203
1195
1198
1377
1219
1344
833
1208
903
702
1295
1709
1437
1566
2031
1647
1093
1152
1701
1633
1271
775
1303
647
835
898
842
1009
918
837
1085
1242
1136
1046
886
818
1038
1327
1125
919
960
871
775
970
833
2288
897
1171
1307
1328
1247
1136
752
643
880
782
646
1097
1168
1105
960
971
943
1254
1331
1180
1107
939
4095
838
688
1274
820
1235
1269
1142
1424
1264
1152
876
1073
1111
1091
1072
928
781
842
1104
385
464
891
2272
805
1151
895
832
903
1085
1202
1214
1173
1040
688
816
969
418
794
796
833
1090
1119
1407
1147
1168
1200
1200
937
1072
999
528
661
754
912
1248
961
441
3350
944
841
908
978
912
896
1050
839
928
763
1347
1509
1743
1753
1374
1120
1335
1396
1233
921
1067
1034
989
1190
1072
1141
1535
1274
789
593
912
1082
1042
1175
1461
1196
1008
1051
914
937
989
1087
711
846
679
2886
999
819
1074
1627
1475
1303
905
1042
1040
1072
986
1288
910
979
653
763
1234
899
960
852
967
1265
1141
1157
947
982
1098
976
1015
811
691
902
812
1090
1136
1436
1449
1703
2027
1739
1687
2096
1424
1081
1712
1781
1408
901
915
711
883
785
816
816
1073
1092
1168
2864
1097
982
914
1008
841
1007
883
705
910
723
766
1402
1211
1216
1137
898
939
935
1033
1166
1045
745
591
790
737
839
628
911
782
781
998
1171
1233
1427
1424
1487
1437
1630
1491
1393
801
703
992
1166
1123
1184
1471
1001
826
1094
1131
1081
1110
1089
976
838
762
1089
608
700
1111
792
1008
880
870
902
1054
1097
1111
1419
1196
966
1023
1403
1339
1125
849
1017
806
855
1535
994
1136
1248
1072
999
1004
1099
672
767
621
1033
596
1201
442
1040
887
1012
1089
1137
1292
1342
1182
1616
1327
1286
1131
787
1177
1147
1274
873
912
1070
1649
747
1039
1094
1113
1035
998
763
542
783
564
529
635
1037
761
991
959
710
996
961
1142
1042
1106
1266
1419
1291
1284
1223
906
1315
1181
1134
1143
1037
1053
1693
1967
1605
1246
1021
1067
1116
1493
1411
1045
971
1063
1077
935
867
953
1009
1090
1207
1392
1593
1450
1481
854
589
1398
943
815
1163
1247
1315
938
956
1450
1197
1154
1418
1914
1562
874
718
1310
1552
1578
3817
1149
972
1137
854
852
976
1137
960
1010
1162
1341
1397
1392
985
733
802
738
906
995
1228
1136
1044
1088
1087
1045
1066
1117
699
655
845
434
475
767
819
1407
933
786
1052
1312
1473
1360
1122
923
899
582
596
773
741
1131
1043
1081
1258
1490
1718
1320
1120
1107
2169
1153
1017
1111
812
765
743
625
807
944
1008
1183
1079
1149
1043
1014
1104
1136
1117
1137
1034
736
1136
1533
1479
1635
1488
1050
1324
1238
1213
1312
1259
1134
1213
1117
1072
855
938
971
829
1023
829
1008
841
930
1163
958
1105
1111
1134
1197
1196
1232
870
658
1648
1041
1219
1181
833
1067
1017
1215
877
1070
1094
1594
1083
1157
871
844
713
697
753
609
949
832
1127
1429
1018
976
887
1072
1318
1742
1813
1937
1465
1014
2544
911
638
559
867
851
1351
1406
1335
913
1170
1232
1188
937
784
560
704
887
636
688
909
957
1037
1089
1376
1096
1016
1017
1119
1056
982
890
1123
843
912
1285
1206
1104
1408
1642
1332
1341
1609
1755
1824
1698
2385
1056
1043
570
912
919
1534
1839
2140
1799
1534
2661
1169
1406
1491
1527
1303
951
1211
1402
993
622
3004
865
947
1339
1504
1520
1462
1472
1244
1181
1136
1157
958
761
441
865
958
1089
1152
652
1265
1661
1337
1407
935
1040
960
1008
1072
888
1060
969
1049
1003
2448
1146
1061
975
1002
708
879
1090
999
1168
1014
835
846
1034
769
910
816
946
599
895
1065
1078
785
1103
1644
1562
1391
1116
809
762
700
667
656
671
1170
2549
1254
1121
981
1094
1155
1171
1091
1231
1168
1022
1234
1136
1350
1390
927
945
880
1617
2095
1691
1393
1129
977
966
1079
1087
1135
1070
650
1234
990
944
1040
1566
1521
1406
1061
1073
1123
1162
986
1105
802
590
1087
1107
976
925
1174
868
1141
1003
1033
897
1021
2783
1153
996
1229
970
994
1235
1181
1045
1535
1052
1169
1341
1043
910
1088
976
1101
1083
1038
1005
610
673
897
795
1104
951
877
840
975
949
934
1173
1139
1173
1411
1360
986
775
701
1005
671
795
1093
771
1053
1147
1008
1086
962
908
1020
768
1136
887
659
989
963
2108
780
645
783
907
899
753
917
961
959
925
1153
1056
1216
1088
841
991
1057
1053
1093
1021
1034
997
809
1136
955
1119
1053
1186
795
842
791
852
1033
737
817
1041
1015
1051
1101
906
1009
1037
978
1168
1040
755
1420
963
1232
835
1396
991
1334
1410
1607
1081
1059
4095
937
1067
1111
807
577
400
742
655
1239
1410
710
1378
1068
1069
895
949
1043
1104
1047
1086
1094
1148
2224
788
1074
1136
1319
1386
1593
1408
1174
1143
1269
2589
1070
1099
1120
794
940
944
1132
1005
1063
1290
4095
1670
1680
1390
1041
997
1299
1182
989
864
623
4038
843
546
923
961
737
960
993
778
785
1002
1056
827
1010
1098
894
1125
848
789
911
659
1061
848
761
2515
1094
1181
1235
1136
1139
1174
1192
1008
1136
1101
944
1065
745
805
935
966
1207
1034
1125
1053
1019
1135
1377
1007
839
972
925
782
679
909
1014
929
931
849
952
940
1019
1063
1120
1038
979
1125
1177
1387
1289
1794
944
576
993
1145
965
899
1004
1002
987
978
996
850
805
750
751
909
1194
1281
1097
1158
794
853
883
1112
1055
915
877
912
808
701
944
782
891
1104
959
1559
1139
1149
874
1039
1010
965
1062
918
827
706
598
470
528
950
778
478
597
819
897
1050
1242
1312
1162
1354
1146
579
554
875
553
666
812
909
1152
1106
1008
928
917
1083
858
915
1106
1079
579
653
454
811
501
824
593
1018
978
862
769
931
1042
1062
969
976
1210
1410
1594
1087
1196
634
1069
656
962
1268
983
999
2306
1209
1243
1327
1202
866
619
757
699
490
982
819
1421
1051
961
861
1091
1012
1072
865
1072
934
880
859
1409
1170
902
1104
921
1326
1455
1341
981
1050
1095
1559
990
944
903
523
1201
396
651
907
685
641
1092
2170
1081
1033
1108
1157
1301
1187
1150
1008
989
1040
2590
794
752
1051
1259
1278
1185
775
849
1021
866
2645
1018
1043
672
464
594
602
574
973
720
936
692
810
1146
1097
1135
1115
969
982
688
446
779
1040
899
2135
853
1047
1299
1076
949
906
1171
934
977
861
1117
1955
710
783
986
831
898
947
621
858
961
991
1117
1088
1190
944
1107
1162
1051
1232
1291
920
1236
1200
1169
1296
1303
1218
1213
1053
1163
1058
1094
1003
770
837
570
523
685
1001
1105
604
784
918
912
956
1073
1040
1082
928
1057
771
704
705
907
1129
1040
1121
1271
2130
1350
1125
1141
1182
1098
1136
1104
1200
678
731
1445
715
558
933
807
1007
965
1143
1259
1299
1392
1595
1841
1616
1168
859
663
647
991
1057
977
848
1015
2179
1014
883
1079
1021
1068
1010
963
673
693
511
586
693
1306
786
691
762
942
1065
1231
1412
1290
973
937
1053
854
546
1431
1008
1142
1398
1213
1467
1662
1579
1475
1114
987
910
1088
1110
794
521
379
1223
1067
2770
1053
528
789
1067
928
814
912
914
1008
980
972
1638
1406
1072
1417
1403
1286
1365
1603
1690
1485
1213
2386
1555
1169
966
1071
1097
688
411
841
777
1206
2521
939
1213
1130
880
784
977
1056
1254
1315
1082
677
1035
811
819
626
774
1421
1355
1762
1591
1406
1085
2527
1358
1266
1245
1040
643
620
987
863
870
619
721
834
904
892
930
893
989
977
913
1034
1247
910
902
2119
1307
1040
1093
1008
1157
1100
1156
1054
1023
977
2260
1044
1038
1141
975
1136
474
556
1005
1011
677
999
829
879
742
1089
1084
991
1111
913
734
795
1185
697
846
894
938
1149
1311
1233
956
964
985
1201
1183
1126
1003
560
479
910
677
839
835
660
1015
1225
1113
1061
1141
1021
1101
1015
1129
971
1007
583
833
740
814
1227
808
989
1023
923
815
1063
1213
1293
1409
1307
3755
1019
1338
835
871
886
912
720
819
979
923
893
2323
1084
1265
1715
1844
1921
2096
1679
1573
1390
944
3920
1008
960
1016
1434
1885
1826
1418
1205
1077
880
1965
571
876
549
1162
880
749
801
932
945
971
1074
2366
1493
1263
1191
998
626
421
787
979
716
1151
1398
1818
1258
1041
896
1210
1228
1313
1431
1594
1395
832
1778
1171
1163
1392
1251
1447
1250
1127
919
1052
1095
2002
1206
1376
1116
909
530
739
615
1088
1409
982
2743
1279
1427
1161
1125
1168
1093
1296
996
737
674
1415
805
511
942
810
941
1072
828
963
977
961
1091
1036
1120
976
860
1042
1023
1041
1393
1380
1365
1556
1284
1375
1009
1328
1350
1820
1898
1695
1148
592
925
1189
1535
1331
1241
1179
1413
1281
1066
955
993
1002
880
1507
1056
901
1091
911
1200
1136
1121
1159
1235
1195
1668
939
997
1137
995
1066
1106
1107
906
1047
507
2416
827
666
870
1011
929
923
848
958
1233
1330
1329
3331
1178
1052
1729
1616
1382
1362
945
827
800
933
4095
949
958
1084
976
976
1015
948
539
1034
606
754
3863
978
752
1022
829
885
941
972
1034
1121
1075
1067
3137
1080
955
1152
1245
1146
978
1491
1535
1299
937
3654
1187
1200
1125
1200
1008
1047
767
843
602
1071
1139
815
1184
923
969
933
1161
853
861
944
961
653
1164
898
613
1200
1001
1063
1070
1135
991
892
931
1233
2245
1215
1098
1074
679
1113
496
713
528
669
691
617
1015
910
797
1001
1035
1178
1116
1173
1185
1165
1168
2832
995
1069
799
947
1058
1116
1181
1167
1396
1328
2023
1245
910
759
1023
1047
1138
894
982
945
654
966
1245
839
899
907
1001
810
1003
912
634
813
1082
1139
1054
697
818
939
823
998
891
1101
1245
1037
879
1091
1082
859
592
1012
1150
562
886
708
927
848
843
863
1261
1245
1206
1155
1001
985
842
725
607
566
1109
3814
862
930
1059
1209
1047
1299
1259
1156
979
1227
946
911
1093
904
1232
1057
895
1331
945
1069
926
925
2595
1022
894
1041
976
1152
1367
734
581
1072
778
704
1278
893
1079
1387
1985
1940
1679
1350
1002
1111
1513
2672
1155
624
878
890
999
1040
1008
967
909
859
813
945
944
903
702
890
779
1488
1243
1297
1157
1413
1492
1628
1185
1021
1047
1070
1040
957
891
934
1505
426
554
1151
1251
787
1050
1182
1032
901
941
1043
1359
2768
2058
1662
972
746
1091
991
1285
1047
1115
1611
1371
1402
1106
939
1104
1298
1345
1069
771
789
648
586
947
754
821
912
1183
1087
900
1232
1422
1217
965
1119
784
638
752
897
1127
719
721
942
1714
2099
1903
1648
1349
1067
1134
1101
875
