675.29
491.93
395.27
582.30
728.57
351.00
814.59
570.36
730.67
767.07
679.49
819.94
939.74
1843.24
909.39
625.21
917.39
645.88
499.95
547.12
398.27
814.33
753.76
720.69
812.19
954.57
1051.92
746.52
699.69
994.89
1011.62
1139.16
1058.01
890.37
649.06
839.70
748.98
704.10
786.34
707.89
926.81
554.96
611.53
831.74
815.28
856.51
908.06
833.18
767.68
864.52
834.95
853.74
853.03
670.37
568.87
392.74
471.18
289.06
962.42
790.40
842.48
664.98
743.12
1764.91
872.71
839.92
717.93
768.67
965.87
1050.00
839.59
1066.66
503.80
628.13
611.26
2290.65
708.87
555.86
659.20
794.41
904.83
803.52
846.18
719.11
545.90
904.60
406.05
294.70
1033.50
498.43
655.94
870.60
691.76
658.54
620.89
889.61
1220.96
1159.30
1143.95
875.56
2645.09
453.68
620.08
665.58
623.72
329.02
564.25
681.93
540.22
650.28
899.45
807.18
1165.00
1160.84
980.83
692.33
771.38
461.68
615.99
543.10
570.93
334.26
925.97
639.02
582.45
1377.35
840.64
789.95
851.62
765.55
754.29
745.57
826.40
732.41
508.15
843.62
444.56
349.05
530.59
850.64
657.61
630.34
695.16
821.58
614.60
663.99
710.87
731.13
857.94
814.36
1654.79
952.58
1068.80
939.12
987.36
708.33
927.15
738.24
1192.92
1134.74
1386.21
1132.97
2583.01
1025.55
926.18
765.43
973.37
741.79
570.88
625.00
630.60
696.33
476.73
700.62
2619.55
1035.95
816.61
772.17
627.63
853.88
882.18
899.61
868.25
1026.15
760.67
685.33
1082.52
700.84
762.75
651.83
609.24
725.70
863.41
844.50
824.88
682.18
748.20
638.87
836.52
1635.73
921.56
302.12
303.32
556.10
361.19
277.93
505.26
451.83
864.84
680.81
835.38
700.89
814.43
603.77
942.73
721.01
904.65
615.24
693.86
603.28
1077.95
726.37
860.64
572.94
1472.61
785.34
854.49
623.15
573.34
642.35
792.00
778.97
685.52
730.22
551.39
193.57
544.29
936.30
533.94
629.09
907.67
659.14
837.75
692.88
710.89
659.68
681.42
682.44
786.22
863.35
1024.54
553.82
443.69
404.72
428.91
694.93
678.46
687.14
1104.04
1020.24
973.60
737.29
1102.97
755.38
876.43
849.93
827.62
844.79
362.82
571.22
619.23
623.13
827.74
902.54
1613.42
510.80
809.11
743.30
570.94
757.18
725.72
1020.35
899.00
961.16
839.31
773.72
633.19
1009.89
672.27
444.12
819.74
1073.03
1385.37
1368.33
1038.12
711.25
776.75
785.10
791.38
1319.78
892.35
454.47
421.71
539.68
765.92
414.42
834.74
447.99
747.76
753.03
749.17
3106.90
865.49
759.47
782.20
834.08
942.14
572.20
645.55
659.18
1072.55
738.02
650.67
591.39
922.53
666.37
705.72
794.61
738.61
736.92
952.36
725.32
896.49
945.27
581.64
378.99
508.30
434.38
562.11
523.96
635.64
545.17
721.98
840.56
583.23
666.80
704.65
748.08
612.93
3190.97
832.35
638.74
702.86
521.98
454.58
795.32
581.50
551.03
787.85
613.34
671.89
502.28
1407.07
756.53
815.04
685.64
842.36
826.88
621.24
588.78
426.52
627.75
607.72
630.70
730.29
775.44
810.56
721.69
962.41
983.14
1032.19
982.01
908.89
823.17
695.67
510.36
1142.48
1845.58
1363.19
877.88
470.99
410.71
736.99
787.17
502.37
713.56
764.77
758.46
830.17
1849.40
834.75
446.06
343.30
567.61
575.65
346.93
624.19
556.56
817.73
965.45
763.42
716.11
786.73
769.58
631.37
859.53
842.15
728.28
710.54
757.51
714.44
526.34
684.25
666.18
643.31
764.85
877.16
781.87
896.99
907.74
869.60
790.89
807.69
707.86
509.28
659.93
654.44
2885.81
680.18
344.50
391.11
380.20
653.05
719.51
487.46
611.29
679.95
746.74
1019.84
1065.66
1379.70
1006.48
860.53
788.67
697.23
780.88
968.12
653.92
965.35
882.51
834.61
492.64
1232.86
719.07
837.29
852.75
979.80
648.06
391.82
299.65
484.66
482.24
675.07
854.62
672.63
989.63
720.43
536.45
658.10
720.60
753.97
773.73
913.52
950.06
697.68
367.65
715.04
1892.70
774.94
548.39
696.19
659.35
815.16
816.90
577.66
790.50
795.59
756.45
834.04
902.53
1114.40
582.57
619.99
418.63
813.35
286.82
424.40
683.36
613.28
625.08
681.48
646.56
1404.19
988.95
1072.09
768.48
983.58
776.62
759.66
1124.81
790.56
613.69
908.55
830.36
845.13
1166.03
1112.27
681.33
625.97
751.73
784.50
987.39
803.53
843.43
639.17
386.64
580.94
1211.35
537.85
373.63
1000.16
741.30
845.54
818.45
792.06
779.24
836.25
864.02
839.79
884.39
1157.87
732.77
983.38
1247.19
927.64
1008.24
742.52
459.30
766.64
699.04
867.02
681.31
1090.42
814.78
829.29
871.71
790.36
596.04
467.27
635.02
597.69
519.33
386.03
387.69
1283.81
1037.84
1011.81
726.95
767.11
916.17
811.75
795.97
724.75
795.42
778.35
620.76
674.66
754.16
641.45
637.58
662.84
678.71
945.56
866.63
802.50
741.43
952.43
845.00
940.58
3005.42
1052.40
583.20
320.19
475.68
747.20
315.25
532.75
639.39
575.16
791.11
692.07
686.97
1237.70
1188.52
1243.70
1132.11
839.44
726.45
791.15
716.23
784.15
503.99
385.01
375.62
723.00
1070.90
1074.06
965.57
843.32
843.41
810.50
706.11
894.70
848.76
513.80
450.98
2494.81
380.66
303.58
560.11
745.69
461.72
788.70
729.33
784.11
754.78
885.01
817.34
861.13
1000.97
875.57
857.45
797.55
293.64
734.34
776.05
671.41
573.32
878.93
676.90
816.51
3047.84
910.10
885.70
1066.86
853.44
1053.96
684.02
666.42
407.12
637.94
848.31
564.41
819.08
655.28
783.97
787.65
622.20
683.77
924.85
951.53
821.91
1014.23
936.71
696.83
408.93
1129.63
649.02
771.02
534.66
900.48
652.16
1030.18
883.88
837.86
904.90
1093.56
860.74
1367.19
938.49
832.16
616.52
442.18
552.36
350.57
299.20
646.43
757.83
946.77
1007.84
864.50
637.56
868.63
977.76
1172.12
928.58
1137.67
923.13
687.88
474.63
692.18
934.94
1176.35
1249.33
827.85
856.24
640.03
921.22
795.21
925.37
801.53
681.45
930.86
858.31
479.31
1145.42
658.05
488.48
845.15
398.75
629.07
595.82
679.84
773.42
843.76
764.94
997.40
876.72
962.87
1042.33
824.95
654.11
476.36
470.69
898.20
581.78
820.71
543.61
1028.87
807.87
2660.05
845.50
851.31
916.77
964.13
846.30
921.87
696.61
369.72
460.47
396.14
517.97
511.84
612.05
599.15
847.87
686.07
895.49
888.58
856.16
921.26
993.09
869.62
797.50
496.51
636.94
377.39
1049.59
912.75
567.99
768.97
721.56
1013.04
895.25
745.85
772.39
901.12
857.87
1435.32
978.42
1236.37
1008.79
697.45
543.79
312.45
494.46
429.61
498.82
876.28
788.12
1296.23
595.61
687.76
855.68
905.86
1091.48
1345.03
1651.63
1741.18
1374.14
1422.40
865.75
582.86
628.16
872.24
898.87
878.52
809.44
815.31
772.15
782.18
729.86
933.46
801.71
2752.52
798.33
579.24
281.86
702.98
503.81
921.57
396.53
782.06
589.26
908.83
694.12
920.13
1361.29
1394.21
1312.95
1370.59
886.74
647.05
453.41
586.34
353.88
564.31
746.98
582.69
942.03
640.19
797.95
1009.38
911.41
852.84
634.71
824.27
829.90
322.23
622.87
392.09
3019.07
835.24
841.29
750.80
736.70
828.37
752.38
836.00
927.52
959.03
879.91
807.87
902.51
1352.51
720.40
400.63
434.56
675.98
435.28
1170.93
1010.45
975.61
752.00
588.23
586.05
2901.32
856.91
678.23
885.90
851.82
499.85
644.03
489.85
783.93
830.20
785.75
643.30
789.83
690.79
556.18
540.83
659.50
682.06
842.94
714.40
818.05
642.68
505.47
430.87
842.06
759.85
734.96
586.85
716.74
877.72
793.35
581.98
702.64
583.73
795.73
743.68
799.60
758.34
2981.13
497.49
818.12
304.07
761.43
559.87
799.63
696.78
819.20
650.61
776.75
716.76
681.48
1339.17
1133.66
743.57
930.34
559.80
567.41
712.12
455.37
321.67
459.71
839.67
709.04
2787.87
998.26
498.88
804.61
931.73
851.00
792.74
705.47
711.19
715.45
668.22
644.37
525.78
561.95
437.84
489.27
536.21
680.42
680.11
818.99
953.08
697.23
893.28
956.93
709.01
492.84
549.73
811.18
883.26
589.98
710.22
776.67
844.59
1092.99
783.33
721.43
727.55
807.01
1961.44
921.40
1007.60
893.30
746.09
519.72
344.18
419.70
443.41
1005.97
651.85
831.79
3160.78
644.72
756.34
957.74
858.62
1043.18
834.93
870.92
864.85
673.62
362.59
718.60
602.73
1027.73
777.39
626.41
862.12
858.01
929.00
770.87
734.50
1023.72
1090.25
871.59
930.40
1358.90
602.31
503.60
468.90
387.53
329.58
867.90
365.60
897.60
609.80
626.79
581.88
917.88
980.26
1014.91
1002.59
1033.85
834.63
765.61
308.16
594.82
352.19
458.83
631.06
618.84
1030.85
701.23
539.15
935.83
830.40
877.81
883.13
908.10
959.20
444.90
386.38
565.07
1535.70
698.89
819.45
558.36
796.47
881.71
573.29
598.08
751.65
1094.22
1031.82
1273.30
1124.32
920.55
684.25
636.86
824.73
843.18
337.46
1004.58
572.13
663.76
747.44
660.66
636.87
845.99
858.29
790.58
751.82
779.25
679.88
929.42
783.67
334.83
353.42
532.88
514.86
743.73
762.59
758.40
793.11
922.75
920.49
688.47
805.02
803.95
786.53
611.87
769.71
646.54
2536.74
1198.59
699.09
829.89
1080.59
997.79
874.62
852.19
998.71
1097.17
979.27
970.21
1637.53
475.64
339.21
739.90
630.14
835.88
469.67
837.85
471.84
729.32
877.70
1260.99
2976.01
1866.93
1127.10
706.74
1544.32
2291.51
2210.88
1625.89
915.92
410.99
292.84
701.79
1058.46
1250.06
1302.93
1313.06
1029.89
1027.46
754.02
753.03
766.16
841.84
947.68
2970.75
359.90
260.55
392.68
435.60
612.40
805.91
959.68
773.08
616.78
632.72
620.76
740.11
987.97
908.92
684.28
729.86
616.66
557.41
359.44
550.98
647.04
750.06
874.06
1045.76
2713.52
722.98
736.49
754.87
804.43
946.03
918.13
909.13
519.18
498.14
884.19
567.12
628.31
951.88
880.13
930.25
766.30
695.59
764.65
992.59
891.13
767.04
801.55
746.16
840.07
2740.02
532.39
601.88
535.66
681.05
604.04
647.67
1003.67
769.77
648.80
438.99
718.05
772.07
732.12
616.57
804.56
695.24
628.44
736.35
362.25
594.16
756.55
781.91
528.23
714.69
794.63
765.13
698.77
867.14
771.63
782.62
793.55
860.61
613.53
780.28
1107.52
840.03
864.91
2663.86
705.44
1145.10
967.07
999.39
569.91
860.50
848.32
867.55
824.11
991.08
661.15
2663.36
736.90
417.53
455.92
1011.71
886.11
652.74
638.19
816.13
854.67
625.50
671.21
750.57
879.89
827.02
858.77
687.30
761.19
1044.78
718.33
1121.93
508.59
663.08
532.40
641.54
1230.00
670.96
758.67
857.37
854.66
977.51
856.83
846.91
629.45
441.51
623.70
626.51
332.30
643.90
550.86
488.47
716.80
739.50
716.04
812.69
723.72
847.46
824.09
906.73
844.02
2727.20
812.62
890.08
289.27
473.40
551.55
506.51
630.50
869.51
676.76
877.75
991.22
879.06
1409.15
1384.71
1653.54
1665.31
1034.30
762.28
773.50
1360.25
1875.16
1638.64
1361.35
3361.87
680.54
685.74
911.13
1017.69
795.83
828.78
634.54
848.18
499.76
741.92
559.30
2679.84
1194.14
1028.57
892.62
1057.22
802.01
926.97
668.20
720.69
645.78
894.52
684.66
841.95
947.07
604.32
642.51
380.18
334.45
634.94
539.66
670.99
624.36
780.11
768.40
641.48
1851.20
816.29
778.17
955.02
1000.34
787.45
550.52
704.78
555.71
591.49
439.96
934.11
594.20
787.10
707.02
731.24
707.43
763.60
680.85
954.19
862.28
954.73
506.51
565.83
511.08
2742.49
562.54
482.99
716.35
786.09
734.87
798.63
525.87
730.65
751.87
884.13
862.26
1028.41
1220.52
614.46
581.67
701.53
696.37
841.16
789.52
848.77
917.07
1115.51
762.03
786.78
2799.32
769.01
699.17
848.93
731.15
767.26
417.72
356.70
423.31
406.31
373.45
459.34
423.67
1341.33
615.53
762.27
655.90
633.22
721.65
973.20
765.16
887.45
499.50
667.26
832.67
814.81
980.37
659.99
679.64
1067.53
1094.70
1072.48
801.89
905.06
799.00
1031.00
851.90
750.49
925.23
549.48
1010.14
612.61
881.60
524.02
944.54
630.62
552.01
721.76
753.30
776.81
1849.39
1021.61
1004.43
1190.31
1083.81
1246.04
1099.14
1127.54
959.98
688.41
655.09
3025.62
713.51
771.45
917.83
881.38
845.56
857.57
830.52
968.75
864.77
1025.56
471.47
734.72
463.48
724.62
831.09
711.67
761.19
659.44
808.75
799.88
692.38
923.12
829.93
810.32
2715.35
898.49
891.32
1036.85
821.07
875.84
807.96
1070.08
754.30
674.92
904.11
983.39
1024.66
1172.68
1051.18
1066.09
821.91
850.14
736.12
777.21
460.64
522.83
880.55
629.43
2806.18
956.78
307.70
787.37
658.39
756.19
610.89
734.30
756.47
713.69
838.50
1058.21
792.95
1338.42
1251.15
673.71
686.86
542.36
350.25
624.82
709.10
858.93
621.29
959.16
835.41
2727.24
684.33
810.69
765.91
489.74
355.76
377.87
551.36
433.45
383.55
681.97
712.28
715.29
780.89
766.95
945.73
801.90
747.20
796.06
839.23
680.39
422.10
389.25
587.11
398.17
756.36
806.58
637.55
876.38
711.38
773.18
701.22
787.80
760.18
939.68
816.86
723.79
538.36
2576.81
567.43
965.71
1001.68
1142.51
772.83
547.98
665.55
870.61
657.40
646.56
842.51
1091.21
962.05
996.16
1011.62
1198.66
1084.30
860.36
557.00
799.55
809.46
626.01
730.65
2997.04
558.44
526.35
778.13
919.48
927.85
913.70
1110.87
752.04
594.81
866.12
678.47
720.22
621.05
624.94
433.51
837.08
734.87
783.32
780.12
877.07
927.36
945.20
896.59
869.66
1618.85
410.97
573.30
653.82
279.93
435.78
851.28
632.74
680.53
787.79
545.57
821.77
715.19
1148.48
886.58
965.35
745.82
603.00
560.73
495.72
234.43
686.99
657.65
975.33
681.60
2707.36
805.01
906.36
985.61
920.57
735.89
861.14
873.09
984.14
787.80
852.73
932.84
754.63
699.17
761.03
392.17
995.82
701.83
785.62
921.87
1146.75
1010.10
1113.55
1153.93
959.60
1044.60
546.20
326.27
503.93
547.28
732.87
616.53
561.18
1078.72
758.30
809.93
774.96
2019.26
825.85
771.70
806.49
889.21
881.97
686.20
810.38
464.16
470.46
297.04
523.12
718.41
1107.12
796.48
656.41
1088.39
836.05
826.21
770.59
854.62
794.64
500.31
679.57
335.79
2831.12
520.04
721.55
727.86
752.25
752.17
879.70
685.78
697.71
680.14
971.46
1193.51
1287.17
1145.25
696.40
300.47
626.42
464.40
496.20
647.47
476.07
780.61
697.57
707.66
937.67
965.21
925.25
971.81
978.00
835.04
429.46
450.95
687.42
760.30
692.37
574.18
542.31
3000.25
676.83
709.96
736.52
729.67
1060.18
1018.08
1108.47
1021.06
1016.13
838.63
828.88
1856.84
910.17
752.76
677.62
286.03
761.74
692.93
898.24
735.29
1006.53
929.98
876.34
968.97
978.28
754.36
800.13
784.45
618.06
992.95
693.06
732.83
648.11
1018.87
942.58
627.01
964.79
672.31
888.51
893.29
1165.39
1194.14
1075.37
744.74
465.70
282.65
572.07
771.05
976.64
523.08
821.50
877.13
872.94
908.90
893.26
710.60
857.81
959.29
680.03
394.19
577.94
757.39
967.87
472.67
884.75
753.21
909.52
634.41
644.39
643.00
711.17
891.05
746.22
2070.30
928.85
678.57
981.50
683.10
663.21
620.94
658.70
421.73
671.90
1062.11
861.92
853.50
954.77
847.67
1085.68
1017.84
814.86
853.01
590.80
481.47
761.04
595.76
455.30
806.38
1013.11
721.25
774.98
762.01
667.12
721.19
852.92
753.41
744.63
807.61
896.94
670.63
672.01
690.53
532.12
614.23
365.70
595.62
893.04
775.77
818.16
776.75
916.90
972.50
907.68
1910.88
922.78
518.75
396.90
493.38
562.45
401.94
731.38
693.97
452.24
725.92
757.97
711.54
1188.34
1151.18
1102.24
861.19
1011.38
1032.79
1259.59
926.66
1106.68
861.44
756.78
1384.44
913.18
799.75
822.54
745.27
796.48
750.75
874.00
970.16
678.31
815.87
908.94
493.15
713.10
463.52
498.74
419.75
512.59
511.70
770.05
668.18
845.75
746.48
1097.15
945.86
1286.08
1064.09
1061.81
825.64
765.27
365.53
565.23
366.06
757.03
645.66
448.69
905.00
764.34
758.35
786.90
885.79
798.84
814.72
886.70
880.26
531.66
478.74
444.28
441.22
535.06
2364.56
1226.68
1183.95
1616.94
1749.05
1911.55
1789.80
1416.12
863.62
1100.94
1287.99
1389.04
1146.15
1039.68
515.93
660.32
943.24
974.06
803.21
1340.68
1153.90
1207.24
677.39
1119.36
974.11
1240.44
886.14
884.42
630.22
529.25
609.47
571.98
592.24
939.51
842.21
848.23
921.11
943.43
937.44
1055.97
876.89
711.02
806.19
766.52
754.42
559.94
432.88
2584.50
643.62
836.69
653.18
852.12
982.86
994.84
911.00
856.86
1086.27
1089.99
673.44
840.56
918.84
821.90
639.80
476.86
127.45
464.85
630.37
651.78
515.60
670.83
677.47
700.86
1903.82
987.61
835.74
1066.05
983.24
1434.12
1617.01
1536.58
699.20
632.59
946.44
1192.05
1504.42
656.51
739.04
791.64
565.43
900.06
908.84
1286.76
1313.19
1384.98
1023.78
571.52
677.87
747.08
728.89
998.98
701.55
538.64
702.51
733.18
995.35
937.68
874.52
887.93
1754.55
878.47
866.35
957.38
443.74
465.28
604.35
730.75
392.28
462.77
546.52
911.43
774.52
1081.87
631.35
953.46
821.95
1079.46
934.37
1022.14
1318.97
1291.85
906.05
1370.43
2629.32
1052.21
778.51
551.07
1173.38
1033.16
914.22
856.95
839.20
722.41
809.80
916.02
1719.53
1761.17
2127.40
1825.55
851.17
825.38
790.73
497.85
563.99
644.23
964.73
1170.74
1955.71
960.12
887.54
954.64
833.33
964.71
403.53
850.47
1364.20
1507.92
1385.86
420.20
1365.46
772.21
960.55
1293.50
1416.66
1684.80
1440.00
1349.11
856.25
850.31
630.84
636.45
714.78
867.51
592.41
1016.80
684.15
697.71
843.02
1020.90
704.12
755.02
818.99
1027.63
1448.58
746.55
1090.84
838.61
1126.39
2872.81
3269.01
2379.72
1002.93
1067.02
2592.78
3982.26
2678.23
2410.37
1338.12
777.75
761.80
1006.60
914.54
898.72
438.96
589.08
399.39
540.55
536.68
883.61
727.88
1047.81
1238.78
1084.27
844.25
846.12
908.89
836.53
885.83
1102.21
700.40
852.88
1030.94
583.55
767.36
524.95
862.21
581.87
905.13
795.46
684.29
2672.85
1223.15
1240.71
1279.72
1379.61
1495.55
1511.77
1161.68
1382.63
1707.20
1446.14
2621.84
885.11
921.63
896.48
797.55
661.18
668.15
810.82
834.42
1009.17
918.56
1009.74
2750.45
934.07
725.98
452.88
655.55
618.07
481.99
871.91
951.41
862.51
759.17
759.04
834.18
1016.69
800.58
876.69
688.13
549.90
414.01
616.80
382.12
742.03
638.12
663.71
884.20
2450.33
942.04
985.61
1149.64
1451.75
1619.19
2060.25
1980.40
1336.67
343.62
1142.42
1465.42
1022.92
1091.43
783.10
561.76
770.29
553.60
677.17
786.63
775.29
798.03
1010.63
971.88
1021.16
431.49
375.77
704.71
779.05
501.88
673.85
821.32
768.44
1074.94
1472.42
1240.77
1820.27
1656.27
1092.60
1017.53
1487.78
1956.84
1376.21
973.23
595.55
390.01
514.16
708.10
620.85
886.55
669.17
584.15
859.39
829.40
956.65
932.89
1051.05
804.95
817.15
1367.32
1902.05
2299.16
1936.19
1366.50
839.36
973.46
961.75
948.39
742.47
771.37
786.37
848.61
779.17
830.55
926.70
764.24
1246.89
1275.26
807.70
742.26
568.81
680.61
827.06
1986.58
951.51
927.30
824.31
786.71
868.36
964.48
1344.38
1362.72
1144.71
566.50
453.96
1773.35
939.87
747.21
624.26
1194.07
1286.05
1233.82
968.87
846.93
780.33
951.24
1038.77
2267.91
2450.73
1870.37
788.56
1164.50
2445.15
2629.24
2290.15
1900.16
981.95
711.25
3072.04
927.46
964.06
1074.27
910.62
933.70
868.90
682.54
761.27
597.17
883.06
839.69
2404.36
785.78
1031.77
837.89
1117.51
772.08
932.89
910.34
872.62
1104.90
1057.43
683.92
3068.73
212.87
550.20
339.82
446.09
587.62
438.91
880.31
921.42
936.83
985.42
770.16
664.78
1029.61
1321.76
1340.87
1169.27
417.73
410.85
899.99
570.64
784.65
693.39
676.17
745.28
671.64
567.34
625.96
800.84
723.66
940.42
819.35
795.02
382.19
756.24
534.26
568.50
2043.42
561.81
428.04
599.19
670.04
776.01
594.10
930.34
978.55
907.40
796.39
843.29
699.83
1423.31
406.29
796.45
925.54
794.96
863.44
982.53
909.56
968.10
830.93
671.89
938.11
963.99
929.88
935.28
976.58
741.63
506.26
817.83
610.30
954.31
433.57
485.17
572.30
913.49
2481.81
759.75
694.60
813.44
792.50
903.18
852.54
1037.93
822.17
1040.54
777.38
779.37
733.99
861.78
677.82
890.03
868.61
811.12
658.35
813.25
774.49
870.57
780.89
1116.58
882.79
2902.54
421.44
481.87
629.22
603.33
718.34
878.81
1191.49
1683.73
1648.23
1257.33
1053.37
2849.79
1433.70
1105.02
932.79
1536.45
2562.09
2562.29
1854.74
721.36
384.67
368.21
1789.87
729.67
944.31
849.13
850.20
767.70
851.91
870.66
930.49
785.22
839.90
1445.80
1433.76
1644.29
807.35
466.55
996.26
1426.94
1528.54
1010.54
959.75
653.76
840.73
916.22
1709.75
1133.40
1050.42
952.97
498.41
459.19
354.05
552.31
312.93
780.48
848.90
1056.74
2241.77
800.18
921.45
872.44
720.75
880.04
1091.48
616.77
625.15
452.87
342.84
579.39
454.36
805.65
825.85
901.79
847.51
878.84
752.41
818.86
809.01
757.22
803.96
1004.77
453.76
3032.85
423.72
803.87
803.21
797.17
837.83
1160.96
1178.36
1058.09
926.51
1037.27
929.05
1370.58
911.37
851.74
665.53
554.33
394.65
538.93
361.90
500.59
637.26
615.20
849.55
2402.79
690.87
981.89
1163.25
890.29
653.30
806.46
800.05
515.79
633.13
511.68
526.34
2196.14
604.98
868.59
502.66
831.79
883.30
584.93
707.53
836.05
711.56
941.54
845.83
970.56
1192.52
617.16
612.14
533.89
544.89
716.96
623.06
707.67
633.66
780.65
779.44
853.62
817.12
1034.28
817.59
903.01
648.31
926.58
316.72
702.91
424.71
718.20
740.26
1047.74
1135.71
1375.26
749.91
728.98
761.13
889.54
773.60
860.27
973.22
522.53
401.36
485.31
627.45
2077.96
741.41
425.95
455.26
738.25
762.35
694.73
654.67
798.99
788.51
861.10
906.50
903.62
1036.45
805.70
415.82
648.28
716.54
862.81
727.88
756.38
756.62
951.50
682.71
812.70
769.46
873.97
870.25
912.53
629.71
508.23
678.65
413.33
287.28
714.51
873.11
930.78
638.13
2171.49
576.68
810.22
879.01
1094.02
986.76
850.51
889.35
742.69
613.14
619.55
357.50
512.65
416.52
581.31
463.90
823.08
820.27
691.52
819.62
876.89
904.15
921.26
807.69
938.70
1918.90
384.34
825.61
578.23
578.57
671.45
476.96
830.28
720.66
802.39
683.93
804.13
871.02
1357.86
675.30
891.41
746.95
709.08
784.86
607.15
311.62
562.85
770.91
639.17
759.92
780.96
732.41
710.82
793.45
786.54
631.74
680.42
654.91
704.17
671.00
695.45
606.79
681.86
2122.60
852.69
324.11
776.70
654.65
861.19
814.23
1029.82
1155.07
1361.48
1126.74
986.86
3173.90
495.27
403.82
564.63
782.90
780.37
475.64
668.78
668.94
666.71
474.54
647.98
767.94
954.86
1056.70
1248.77
1049.94
521.03
683.47
1130.13
1386.37
1356.07
1130.45
479.57
1702.86
921.20
1104.23
1185.99
1020.79
824.37
752.13
836.31
731.07
709.93
825.49
663.59
1360.84
707.26
815.30
465.92
414.86
825.56
922.04
951.39
959.43
1286.70
1080.59
986.25
2479.69
773.96
499.23
593.26
575.81
570.93
1055.79
1051.86
553.02
913.98
588.91
809.86
2133.35
929.60
949.76
795.50
817.45
700.67
807.71
601.93
702.75
848.81
778.83
829.12
1019.93
1371.93
1085.83
1169.26
860.11
913.05
953.04
844.17
667.68
827.89
874.82
547.03
500.67
1001.35
446.66
463.08
368.58
972.28
477.58
842.82
944.74
563.19
700.26
791.17
790.33
2167.26
875.88
836.88
721.65
733.91
545.83
681.65
937.29
795.20
854.05
940.24
952.70
866.96
1023.83
899.97
882.46
880.21
907.27
977.99
816.80
458.88
154.84
485.81
527.87
681.54
658.45
814.25
826.32
840.44
659.25
847.81
924.76
902.84
772.71
848.88
782.33
510.35
422.37
1831.21
739.35
888.25
325.26
847.90
539.23
1052.83
1010.59
1279.49
1344.78
1418.85
847.10
3219.93
1145.23
1089.37
652.22
646.38
626.55
415.15
559.65
755.54
558.68
851.69
963.06
3424.07
620.84
746.57
797.99
814.40
768.06
927.32
666.40
731.48
664.21
1080.66
817.74
942.11
498.29
801.20
1029.33
1045.36
792.44
743.88
778.74
794.44
821.89
808.66
966.99
567.57
1180.67
469.30
474.78
593.41
446.67
946.70
858.50
971.91
1112.81
1235.82
1143.04
1229.05
1407.77
995.65
769.11
924.52
489.62
549.83
404.41
704.89
703.12
590.68
518.91
838.95
1373.21
912.10
671.93
640.64
784.54
867.32
755.32
920.00
742.52
420.37
228.81
511.46
774.99
540.16
409.86
500.73
707.53
802.69
703.39
594.30
692.94
699.28
767.74
662.65
718.32
1973.90
743.47
795.02
748.23
873.76
805.09
1004.86
1050.91
1093.15
1124.31
896.89
1005.40
2173.91
841.35
843.17
744.57
844.09
525.32
567.29
329.28
396.30
497.91
503.22
582.99
682.62
891.97
823.11
552.21
722.49
552.69
731.13
822.28
1141.70
953.58
754.58
702.75
594.55
1684.44
549.82
589.61
643.81
1005.19
1259.69
1235.64
1382.34
1117.84
927.83
750.00
706.37
1295.32
645.57
643.00
995.80
822.99
890.67
442.73
671.72
342.47
825.08
830.60
606.82
2121.51
856.10
712.46
752.52
864.61
771.14
453.22
548.20
243.64
669.70
699.66
1046.25
990.75
1304.88
778.15
836.94
550.26
918.84
901.70
832.74
770.62
885.31
1013.90
848.48
1184.91
2994.57
775.31
723.87
667.09
548.70
816.64
959.09
837.05
1046.72
644.99
805.67
781.66
2052.68
1161.36
1243.34
874.21
779.92
498.31
665.87
515.26
679.01
598.58
640.90
641.44
621.44
526.47
817.40
734.68
758.77
798.48
732.68
647.50
533.01
544.54
827.94
703.61
1053.65
1655.20
784.78
578.81
817.60
705.96
762.50
724.83
846.22
904.14
768.04
768.36
513.50
413.77
1295.23
521.21
581.44
476.12
469.18
743.95
816.48
648.23
649.74
862.84
661.19
753.57
923.76
708.73
872.99
676.22
375.90
609.29
929.64
1148.14
1407.57
1528.02
2202.74
2036.94
1924.10
1537.21
1351.12
881.82
802.78
674.26
765.41
433.70
697.13
599.80
501.11
726.59
2066.33
1227.78
1007.82
1052.42
672.29
790.82
1236.30
1708.42
1879.45
1701.40
1529.08
1206.82
846.65
735.22
800.84
348.18
835.36
622.77
777.80
808.11
740.17
613.54
738.29
711.01
3006.80
757.36
874.18
913.29
882.78
710.68
491.50
623.32
328.93
440.73
990.06
520.08
1133.32
1301.98
1173.68
1264.93
1304.08
823.54
846.18
888.91
1076.98
824.81
679.42
935.89
1880.90
541.67
764.11
945.13
932.54
592.82
725.64
559.95
784.84
909.78
925.78
981.74
990.98
1354.49
752.83
610.58
1124.36
974.74
636.70
499.02
544.17
696.09
846.11
718.23
605.57
1327.31
912.44
713.73
837.28
927.34
587.55
580.80
1001.16
759.86
781.81
612.55
725.25
475.58
772.30
809.22
792.67
801.95
1350.94
1247.53
1182.49
842.62
928.80
428.22
670.57
811.94
1078.73
1078.45
498.97
482.27
487.87
637.63
740.32
619.60
867.11
899.67
900.86
934.03
3981.79
884.16
796.38
711.07
709.21
542.49
600.56
382.65
759.79
650.04
617.11
622.68
900.13
1116.87
1107.44
1076.38
1092.66
882.30
1027.89
894.27
1144.13
737.29
928.09
896.79
2046.09
743.36
1060.74
1125.19
824.58
871.98
1013.77
827.45
694.14
823.17
792.51
452.06
2218.25
1405.62
1714.87
1333.07
387.24
624.15
1041.03
1076.77
1037.11
594.03
672.00
681.62
1030.69
757.15
1116.04
1039.59
977.38
813.11
987.89
655.91
718.04
711.80
687.17
456.06
1384.26
730.96
448.58
670.23
871.12
693.27
814.73
839.96
965.66
630.58
905.82
658.55
544.70
341.00
594.90
462.53
860.61
595.16
639.89
711.99
1011.25
870.88
879.29
758.31
1076.21
1908.16
759.81
227.45
691.63
476.73
688.15
774.74
531.21
670.76
761.16
725.43
784.94
1017.47
1144.87
1018.46
946.33
895.68
458.38
474.74
541.93
728.96
525.72
421.93
594.55
1177.39
1528.78
1355.37
1365.73
948.15
1153.08
1370.99
1025.16
941.83
597.56
478.59
386.95
1983.93
745.42
588.01
733.76
522.84
683.75
797.88
729.39
646.35
906.69
870.44
876.74
737.02
1277.10
819.77
723.62
721.28
442.26
395.72
656.94
748.89
769.87
859.95
806.17
665.74
1937.65
900.11
990.09
857.16
938.77
823.53
802.02
466.29
584.98
484.91
683.76
221.24
629.83
1110.46
809.94
656.45
786.78
794.07
801.29
686.35
808.85
873.80
839.83
735.40
1039.50
796.30
492.02
740.64
1298.30
1347.59
1629.04
1262.16
1208.11
715.67
838.69
774.16
897.23
1959.94
1402.61
1127.27
1546.35
752.76
988.51
813.81
1219.17
756.64
808.08
812.31
768.82
759.36
647.03
819.03
772.11
861.03
766.00
965.09
682.59
647.06
464.53
449.25
641.06
3247.73
768.59
676.93
815.23
635.75
682.63
757.81
932.45
929.73
982.06
742.78
967.37
886.46
1031.13
404.76
565.06
595.68
1059.51
557.60
926.68
822.41
1009.04
765.40
715.02
725.66
1403.78
903.60
882.50
782.67
469.97
431.09
526.43
472.66
528.94
506.09
516.22
734.57
733.26
713.69
755.44
1109.51
1422.93
1270.47
1362.27
1373.89
1205.38
1092.55
1326.78
1198.98
1765.66
816.24
1052.46
605.40
800.70
776.85
619.05
785.71
825.33
681.18
857.48
937.29
1386.73
550.83
606.44
724.56
493.92
850.96
788.75
841.42
804.54
829.40
808.04
587.72
980.36
794.14
983.35
908.50
955.85
687.78
727.71
949.45
1376.27
1087.09
1020.77
940.17
971.93
915.24
971.12
793.48
831.16
916.07
848.47
669.11
832.66
856.99
521.37
650.88
410.61
1521.36
512.46
424.33
608.42
600.58
728.40
785.46
745.45
830.76
880.83
804.89
825.95
978.22
1007.98
487.94
780.76
772.91
821.85
289.50
800.58
499.49
984.21
742.71
1032.93
818.79
1336.05
993.33
763.37
783.84
894.44
667.93
476.17
402.15
792.86
621.72
832.88
1127.89
2135.85
763.45
803.75
558.12
704.19
821.24
1125.00
1357.73
1440.42
1585.55
1454.78
1030.32
1530.57
1118.40
974.95
743.40
683.87
1037.50
895.25
843.12
604.60
675.83
905.12
936.62
871.06
975.03
609.89
309.93
548.37
791.28
942.87
458.27
667.07
481.11
827.37
661.58
3272.64
672.56
1131.19
845.27
990.92
845.81
951.58
682.98
585.30
538.28
720.87
844.91
566.20
583.46
441.41
834.39
1119.49
839.60
933.01
875.47
1045.13
773.87
905.09
762.03
685.23
751.30
721.04
315.03
797.69
731.95
975.99
699.31
813.13
886.04
822.54
810.29
774.95
864.84
871.13
793.58
958.72
753.67
948.17
577.23
905.29
778.60
669.35
576.28
806.26
768.96
1470.76
786.18
779.63
710.42
686.89
1003.07
848.26
673.78
451.52
314.84
646.57
535.92
827.10
733.82
815.73
735.89
590.43
606.54
648.65
696.17
692.09
724.34
970.60
808.21
761.21
375.23
1048.51
705.01
817.66
834.02
705.60
1026.93
1018.71
1037.33
867.59
842.08
755.95
762.47
779.62
939.48
832.60
373.03
401.44
249.58
652.91
622.20
542.13
635.99
751.68
728.34
3290.48
873.02
890.04
1018.65
1069.83
894.98
1256.14
695.03
677.97
566.55
639.23
792.34
3244.14
879.52
642.59
995.83
920.93
706.74
971.55
849.16
1007.73
832.38
828.06
776.07
1296.02
554.27
608.79
915.28
750.79
818.80
636.63
778.21
690.90
923.95
565.91
755.59
991.00
1348.81
983.39
718.10
882.30
624.74
1007.88
1391.77
1046.57
761.75
697.42
556.44
640.41
1329.33
895.15
638.39
996.30
850.21
710.74
797.62
908.92
799.19
572.97
624.73
942.78
602.98
783.53
712.87
551.25
695.28
681.53
583.19
634.23
534.44
797.76
668.82
895.70
744.56
1335.76
672.26
661.31
587.71
839.08
851.48
747.77
772.95
1190.71
1036.07
907.78
790.41
699.31
984.97
918.62
1143.42
918.62
828.97
774.70
399.47
614.88
431.83
751.77
457.53
939.26
907.35
832.16
721.80
795.28
820.66
904.29
903.01
844.14
768.56
960.32
917.11
1080.84
1462.58
644.46
881.87
832.06
932.62
1051.11
738.23
928.20
859.00
886.97
860.84
1056.27
3729.98
664.17
478.09
728.10
411.91
556.80
502.67
836.43
884.19
792.95
745.19
793.48
785.26
1279.07
848.84
981.30
949.16
715.77
361.68
595.02
398.41
417.78
1193.43
831.78
635.51
1495.21
892.19
900.40
852.90
896.66
867.84
839.84
886.09
1031.43
442.61
453.62
323.09
3274.86
576.33
1053.86
858.18
850.66
758.61
889.41
861.79
962.50
962.73
1137.07
616.77
3373.84
822.03
622.45
256.36
422.90
517.54
526.55
308.05
496.03
860.13
1019.68
809.05
672.21
709.12
947.48
666.58
666.36
855.67
731.20
524.90
781.09
578.94
680.59
809.98
655.62
3234.25
724.06
556.80
887.63
796.27
778.48
728.21
1025.12
835.84
924.07
564.25
715.03
1016.39
1185.24
876.29
1206.35
1229.92
1305.71
1196.63
1124.11
765.77
590.28
776.56
846.27
2017.79
976.57
894.87
856.79
472.08
925.81
830.92
1048.28
604.99
798.88
708.20
890.15
954.92
662.89
820.80
946.76
760.62
796.80
882.82
798.82
377.68
703.76
1288.49
800.85
583.31
3121.46
677.53
1217.15
948.96
1338.10
1027.45
1664.62
1620.00
1574.33
1375.10
1304.25
698.52
511.12
543.28
1080.24
1541.20
1118.12
902.76
490.18
859.35
822.19
782.97
982.11
3085.57
957.52
697.85
814.25
651.64
767.95
288.40
799.63
597.36
1027.25
742.83
914.33
1011.13
1128.28
1107.91
1081.30
1034.64
901.67
886.95
964.05
881.23
1067.84
721.83
722.54
2986.10
943.33
395.16
488.82
536.90
574.15
832.87
895.33
846.05
732.88
642.73
735.91
737.75
1409.25
454.15
800.06
251.88
575.27
324.35
612.22
677.21
723.27
1150.90
1030.05
542.34
3250.92
773.19
745.55
756.30
768.36
925.20
787.98
848.09
618.41
568.09
574.10
517.13
923.35
927.13
1189.37
708.05
759.24
650.16
863.95
888.66
799.72
754.63
780.51
592.10
693.42
2968.90
558.65
522.56
685.10
551.05
839.89
902.95
1010.94
753.37
1119.25
820.56
1097.43
843.14
1152.36
695.76
766.11
690.49
885.70
363.48
631.76
688.14
697.09
764.55
630.32
859.89
3008.91
1385.23
1337.96
1067.50
879.31
745.34
550.48
666.85
549.43
592.39
426.31
752.26
3181.10
838.73
1068.55
1264.64
1404.59
1218.81
1167.20
912.76
996.39
988.23
1063.22
785.59
482.06
570.99
418.70
513.24
835.92
610.89
566.51
894.65
776.75
575.70
981.32
812.37
3089.48
816.77
1103.87
652.40
678.76
791.84
927.02
947.90
879.03
511.21
961.38
999.95
1052.32
762.42
1074.37
902.71
1278.73
806.28
1132.27
818.58
785.97
329.22
663.18
711.11
3497.16
654.68
781.65
539.34
741.71
725.19
634.59
627.59
928.49
721.44
1041.82
852.30
890.60
685.30
638.49
476.20
898.02
476.93
773.52
403.16
654.25
862.40
727.31
524.39
769.70
859.07
1104.72
968.58
970.60
647.22
730.88
322.74
455.08
666.69
625.66
617.64
586.60
711.98
1376.31
711.58
782.83
622.25
679.48
738.02
843.75
829.38
1370.74
1131.20
1596.02
1385.78
1383.74
1090.80
1070.82
898.26
1208.39
845.42
682.63
730.74
838.30
1010.22
729.84
835.07
1189.10
403.06
367.90
493.96
465.16
605.10
687.62
855.03
713.86
878.07
810.61
735.05
2832.77
1296.51
1510.31
1308.31
1012.83
673.02
481.76
708.44
588.05
359.02
751.03
822.11
3009.26
1159.73
1084.49
773.35
898.17
925.72
742.09
852.29
887.41
882.89
597.92
494.75
3086.26
381.07
335.73
528.80
844.25
513.28
733.12
698.79
760.62
891.37
853.74
965.54
1061.92
1318.39
1232.23
1141.66
1184.21
1024.39
780.10
626.32
863.39
453.47
690.56
853.53
745.95
747.07
764.92
848.10
683.88
748.64
723.46
746.60
704.49
725.01
432.24
372.73
549.82
2667.22
671.70
854.92
728.11
576.44
827.97
599.99
980.08
910.79
825.08
807.29
992.50
750.18
1484.43
1071.85
930.54
699.96
871.22
858.86
1168.78
925.32
758.08
658.41
826.83
874.36
3295.72
843.46
981.94
449.78
487.65
577.75
602.06
436.33
651.30
469.99
813.59
756.17
855.75
958.04
998.32
835.38
1141.03
1001.50
1204.26
852.36
868.26
465.12
537.41
363.89
756.27
974.07
445.15
821.34
811.09
782.66
838.29
809.12
847.20
924.21
1087.84
941.67
471.60
1902.10
345.03
473.15
587.97
688.91
701.99
632.41
859.22
907.35
968.68
892.00
1120.84
843.67
1088.47
1103.56
1076.46
638.78
608.25
725.31
748.54
634.20
494.53
504.34
985.80
756.76
1059.34
451.89
828.60
792.87
850.38
685.34
732.75
528.00
633.85
346.98
505.31
390.07
1006.79
637.25
701.10
790.84
909.57
860.37
773.04
670.74
743.41
764.88
825.39
738.13
699.32
528.60
342.68
290.21
587.54
768.77
876.89
582.06
1378.23
1184.53
971.63
1011.41
1148.78
1071.10
806.71
873.37
1011.89
514.61
453.29
297.45
554.58
445.56
458.19
458.79
740.47
868.07
682.29
637.22
944.51
749.00
724.35
860.76
909.08
857.16
499.61
850.39
633.63
607.10
884.11
1000.89
899.05
772.47
766.93
811.91
633.48
572.87
727.72
860.01
1006.05
815.80
2833.36
669.84
601.42
388.34
493.18
480.68
524.18
631.94
904.42
808.14
602.28
763.13
966.96
1089.51
1030.13
815.90
1137.75
953.98
805.42
785.40
890.09
811.24
878.36
759.08
927.38
982.31
889.98
586.27
714.99
777.30
966.42
1043.88
906.40
541.46
470.18
445.78
415.69
651.58
478.39
514.46
576.47
736.18
815.39
740.27
1037.02
1196.31
1280.20
1269.65
954.21
1256.95
511.33
420.30
570.92
246.91
612.03
338.70
495.32
646.59
975.99
725.42
793.84
1320.48
1050.12
1076.59
1125.22
915.60
861.24
484.14
381.38
543.54
496.34
285.62
800.60
1061.53
869.42
595.00
866.65
663.08
712.24
861.90
882.68
1015.82
882.05
691.26
649.36
2752.47
734.23
708.58
991.99
832.56
780.77
1060.74
871.94
692.59
597.92
668.28
636.79
823.57
1041.68
863.33
502.58
429.13
591.70
542.42
617.15
402.17
977.05
635.99
829.47
660.06
2790.35
871.20
878.78
751.43
945.76
792.98
931.17
902.72
709.24
509.87
546.50
790.03
552.45
817.77
1091.49
821.42
1094.49
750.46
862.61
840.30
1065.42
1077.72
1313.90
732.34
628.03
725.87
549.06
747.36
932.08
888.27
778.91
714.37
657.20
661.59
727.99
807.04
824.00
2469.73
1077.27
1131.12
1125.92
917.57
914.79
473.05
663.08
616.24
908.23
374.08
842.80
2742.83
710.15
648.37
796.55
870.27
1174.05
1240.78
1587.09
1162.87
928.56
515.98
428.56
1996.27
607.57
768.26
589.70
573.36
724.23
703.95
881.52
799.95
828.98
672.02
947.04
663.94
662.32
515.80
777.70
845.96
847.73
574.03
650.90
689.27
660.98
756.60
875.38
731.70
2898.90
791.23
794.45
775.78
696.88
301.15
579.88
418.81
420.17
370.92
551.00
401.37
778.35
1204.78
665.96
656.27
927.38
787.31
1127.90
1017.74
817.40
609.21
578.74
320.62
616.70
1708.87
1082.50
738.16
1238.77
909.40
990.82
525.59
830.05
746.17
713.06
711.16
981.34
2925.51
570.04
712.09
392.81
403.79
432.07
662.88
486.70
738.48
706.91
810.11
831.35
855.25
1277.32
927.40
832.71
824.92
833.92
737.36
620.73
749.14
739.96
509.48
935.62
730.50
2739.23
1041.81
920.11
792.91
1218.03
815.43
1002.86
881.63
948.51
579.90
472.49
548.46
2691.48
423.37
712.17
405.39
698.40
613.77
802.98
666.83
680.05
760.74
784.63
711.62
936.38
1220.44
632.83
571.14
705.83
511.99
758.29
657.35
694.96
829.98
986.77
806.96
772.15
2733.95
953.46
844.80
1002.81
810.78
467.48
571.92
502.20
235.28
371.95
509.69
735.71
377.46
1384.59
736.46
667.66
767.68
681.59
693.71
810.68
816.00
823.91
441.97
580.89
535.02
663.63
1037.08
738.51
703.61
1059.35
703.51
1041.65
792.44
1032.14
1008.24
789.49
864.54
785.75
707.95
521.76
681.49
792.64
912.48
611.07
777.01
466.80
855.92
786.52
717.84
772.99
2491.05
967.61
742.54
920.30
940.93
808.92
750.94
492.87
834.91
755.22
893.55
836.04
552.97
1461.10
986.37
718.87
870.50
831.64
806.23
905.08
968.55
934.77
817.67
821.97
913.23
647.52
787.16
847.02
598.95
1028.83
711.08
593.05
694.87
649.78
655.37
793.53
788.05
755.43
2633.94
677.32
572.09
661.84
559.79
957.17
924.21
753.66
1137.28
971.82
736.51
767.04
763.62
935.89
808.55
760.04
911.33
573.18
380.33
532.83
323.37
515.61
520.66
836.57
622.09
2683.62
776.94
747.14
749.21
1048.48
788.86
729.08
698.55
801.73
393.97
490.26
523.32
474.64
833.97
541.67
910.88
987.59
831.71
908.44
577.12
872.22
701.75
847.82
917.14
1041.49
2688.89
708.87
664.63
769.74
505.86
717.68
453.71
574.13
867.38
907.44
848.89
763.03
692.35
1056.27
851.15
906.92
780.01
563.07
421.30
534.31
504.94
793.94
589.30
906.85
790.11
2658.02
1163.24
1082.60
975.62
1089.27
762.36
984.97
834.25
778.39
697.68
402.61
233.44
1045.10
513.02
718.09
441.36
624.17
665.36
687.16
675.00
855.73
856.25
893.01
784.06
916.38
972.13
852.28
612.92
638.96
269.13
718.72
727.53
833.18
960.42
889.14
804.69
888.64
2496.02
969.27
838.18
1019.79
994.50
825.36
490.29
680.97
495.07
611.66
342.18
799.96
433.66
820.19
763.54
750.30
843.80
880.56
706.06
809.38
938.52
1115.71
797.55
783.72
968.98
2665.53
580.34
524.51
771.43
647.46
812.59
837.66
637.64
991.75
945.57
814.12
862.96
895.50
967.14
605.51
265.07
456.58
393.20
544.82
360.63
540.25
700.29
757.31
691.07
717.19
847.91
1075.43
890.78
912.71
796.97
873.97
482.99
782.42
693.51
837.15
443.96
882.95
761.54
2739.18
940.51
779.11
743.97
763.61
864.15
963.80
782.66
720.60
455.23
576.48
581.92
815.94
767.73
630.63
696.99
687.98
773.02
883.90
779.09
760.32
747.58
750.38
740.40
717.34
797.49
963.01
740.60
809.65
815.10
649.61
467.15
662.04
1057.73
928.14
849.48
745.54
703.44
2575.64
828.24
797.31
826.33
768.72
472.00
493.35
579.96
441.98
637.08
589.48
446.94
851.42
891.76
762.60
730.77
742.29
783.93
903.81
814.55
915.18
829.70
903.44
481.64
634.45
2323.77
740.11
750.96
792.56
782.02
867.73
748.29
934.86
824.53
874.58
1017.41
1147.43
896.47
885.74
566.73
952.81
438.25
802.92
851.49
544.05
798.98
801.72
847.15
808.89
794.99
2747.68
785.59
801.27
849.50
650.12
630.23
848.54
850.45
790.33
436.72
753.19
544.83
919.28
1186.83
930.18
702.61
828.41
697.72
828.21
871.21
866.48
405.87
665.49
425.21
573.64
511.21
859.94
581.44
692.42
711.64
784.35
622.49
826.29
760.79
819.03
806.67
844.06
668.29
2400.18
748.44
861.76
857.56
1026.81
810.19
1166.80
1156.04
1268.52
846.28
764.16
750.78
2706.26
763.00
824.67
863.86
622.57
504.06
442.98
533.35
508.11
414.84
595.94
345.68
732.56
754.86
782.85
684.19
925.56
832.56
1020.41
684.35
896.48
648.85
733.46
812.79
847.93
1254.09
789.68
678.39
941.88
1008.55
1011.51
678.23
924.23
991.11
1019.95
886.18
869.43
1108.71
748.37
524.46
422.17
377.82
877.60
858.50
647.25
1014.86
725.31
774.12
780.38
1775.72
751.96
691.83
838.26
785.29
633.11
719.94
593.82
506.31
779.07
928.30
776.72
551.03
1211.90
805.16
838.76
798.14
1004.28
775.45
873.12
818.50
848.46
681.54
566.98
402.01
2558.35
475.05
780.52
649.28
517.49
689.24
897.65
550.70
790.76
852.03
789.73
752.44
891.49
983.30
870.15
411.66
908.19
847.41
954.91
765.61
726.36
797.49
802.75
650.28
668.70
2463.41
793.48
768.06
907.19
880.34
906.50
480.57
625.42
786.95
722.69
490.38
1040.91
556.27
1351.00
629.06
786.79
771.84
772.91
879.98
710.93
817.31
1000.54
768.53
632.54
720.63
2587.34
694.67
1088.02
634.72
669.80
677.35
895.91
595.96
710.04
919.21
881.81
816.01
822.53
875.38
583.71
525.87
714.31
817.92
948.01
752.72
718.68
734.29
727.72
849.36
610.56
741.65
911.11
779.83
879.15
845.56
600.11
416.65
865.70
566.59
757.56
852.56
1062.62
1141.25
2631.68
1107.75
844.19
784.53
910.18
879.05
878.41
977.35
923.86
656.32
632.06
773.92
2714.51
567.49
429.78
710.64
586.79
831.02
751.94
1063.87
1321.84
953.93
1112.48
1141.30
2553.69
894.05
851.17
360.12
504.87
376.20
612.93
456.78
709.02
591.91
882.16
802.71
688.01
930.61
918.44
953.61
793.05
883.99
640.57
362.93
654.62
323.28
730.19
448.23
777.48
2137.02
769.97
779.04
695.54
628.77
910.29
800.37
786.46
780.75
866.71
660.09
632.40
715.95
1359.61
666.72
688.47
515.55
900.48
735.84
1086.58
741.85
731.70
809.58
792.70
812.68
2633.70
870.37
600.51
410.30
633.15
295.82
607.92
652.43
613.00
624.73
651.11
762.67
712.66
1281.49
764.12
687.46
830.36
763.66
808.42
520.08
732.65
305.64
675.47
635.18
697.09
633.27
849.39
752.53
765.71
674.48
987.34
917.59
806.71
755.18
957.22
810.17
681.43
357.19
1601.43
650.46
668.22
710.78
531.08
781.41
709.85
733.33
1076.41
970.15
1007.34
700.32
2386.44
922.20
575.42
568.31
770.88
594.68
746.05
475.12
770.12
997.99
1059.34
844.13
887.43
838.62
1075.72
932.30
880.72
923.13
607.76
353.28
622.73
637.47
409.67
284.23
687.59
1569.00
713.79
706.25
978.91
811.72
999.85
935.27
1175.19
935.18
1153.86
627.02
841.49
676.73
821.83
833.68
816.09
492.48
801.67
1078.81
1164.42
670.61
746.58
862.48
917.95
1640.81
741.30
1029.98
744.75
908.40
899.97
832.39
642.39
669.28
585.76
845.50
823.36
651.15
968.00
808.01
1068.01
894.77
950.04
927.82
1070.47
655.83
725.72
547.46
640.24
495.04
1659.62
633.75
939.99
810.95
814.46
712.06
879.25
824.24
931.30
805.17
783.38
330.33
544.76
404.62
865.93
493.48
704.91
773.27
651.90
550.74
760.95
655.65
789.54
750.27
860.73
2338.01
996.78
845.35
1113.42
748.04
937.68
723.39
891.26
679.24
800.63
881.02
937.85
973.47
910.77
860.66
906.76
766.09
870.77
931.26
641.75
354.29
467.15
607.84
502.11
531.93
2215.23
381.03
842.45
952.48
789.27
738.36
801.20
675.80
931.35
807.92
1067.68
532.58
818.62
931.15
715.95
685.83
994.49
786.38
871.09
1023.41
1318.69
830.33
912.50
795.66
781.31
2481.72
886.69
954.02
696.76
404.78
492.79
251.04
692.20
452.83
575.49
686.43
846.12
745.43
1106.07
871.20
858.99
791.37
1063.30
938.92
911.45
678.58
621.02
491.28
602.43
826.12
2335.11
684.08
926.35
902.52
1005.13
707.08
963.12
872.42
771.56
694.54
802.28
360.26
741.38
725.08
476.82
472.35
395.65
386.38
452.92
735.52
751.68
677.90
809.05
783.06
972.98
2245.63
845.01
840.24
848.30
648.95
923.39
689.45
595.62
663.51
761.81
718.92
824.25
644.15
870.72
772.80
840.81
798.34
873.95
911.48
609.24
529.01
509.82
303.41
604.06
465.24
725.16
731.31
726.80
793.54
793.11
777.22
980.71
787.65
984.52
863.72
1054.59
573.28
768.15
1054.04
805.96
504.48
1159.67
785.95
946.69
919.13
873.87
781.66
919.56
788.56
860.77
2206.42
1086.66
963.86
462.89
422.17
825.75
910.88
718.15
649.76
575.26
657.30
819.85
628.97
942.29
808.56
908.42
686.01
924.14
937.30
1078.81
734.30
750.23
349.56
744.20
412.46
2183.60
693.81
831.35
797.98
1018.01
604.87
858.56
787.08
740.19
875.58
939.41
672.67
361.53
556.91
580.17
461.90
602.51
468.03
617.13
750.17
708.35
643.34
931.81
790.68
1047.96
761.88
1022.07
863.59
917.02
1137.96
1050.91
862.21
953.13
890.69
648.63
872.96
774.95
728.48
717.89
752.60
883.61
823.91
705.51
823.65
691.13
458.03
494.90
615.17
894.58
481.41
2225.23
443.28
960.49
765.89
631.95
678.08
962.11
724.87
1064.18
782.67
871.49
578.97
695.49
954.54
839.93
670.81
759.82
738.89
754.25
929.38
936.17
695.46
712.80
808.42
816.75
643.44
927.37
855.48
494.42
427.96
646.43
448.19
635.52
916.22
669.91
724.41
733.53
855.65
2260.01
743.16
988.51
893.72
875.86
887.48
995.19
687.81
910.79
760.64
699.07
880.31
950.00
1371.95
1193.67
912.50
985.18
797.26
905.69
828.54
942.52
736.74
983.83
547.54
572.58
1823.21
758.98
703.72
638.36
665.28
474.21
975.26
689.66
752.29
767.71
694.02
874.71
685.08
1028.28
731.20
658.88
462.05
563.92
299.45
623.97
514.30
739.09
1023.70
1422.82
1079.67
1480.49
870.28
808.02
828.46
916.74
866.43
747.75
468.27
663.23
415.62
724.73
629.83
2290.17
448.87
754.91
581.57
697.27
711.33
727.10
858.08
954.88
887.74
790.98
472.58
561.19
808.10
516.14
234.72
827.38
752.48
761.30
904.19
1021.65
651.44
633.30
722.10
920.28
876.73
956.84
900.45
497.00
295.96
788.06
301.25
586.14
479.74
642.21
672.15
734.43
739.91
2078.86
790.32
935.35
907.02
1042.71
921.98
923.83
649.68
711.22
688.28
627.95
675.40
848.96
665.27
1139.23
990.09
752.90
712.40
926.29
768.57
867.55
802.44
870.28
652.42
567.66
1880.12
410.43
525.71
480.09
813.18
521.58
708.44
703.29
624.86
732.84
665.77
899.91
838.04
987.40
712.30
746.95
869.09
895.56
776.26
936.52
799.87
898.32
956.74
1153.49
778.09
1120.39
910.20
947.59
822.72
823.45
803.05
910.49
476.30
611.60
713.89
423.95
702.36
1756.57
659.94
890.52
724.16
744.17
573.63
829.87
741.96
948.14
920.14
890.06
724.46
1058.24
893.25
1393.46
1237.15
1416.08
823.62
729.66
778.88
906.95
655.31
844.11
850.43
984.29
1004.37
1116.81
847.91
615.54
1027.10
1321.42
1430.22
1221.21
968.35
630.79
602.15
1110.80
843.62
611.77
798.40
847.98
861.55
804.67
903.37
913.08
607.74
650.02
349.08
2201.23
641.98
835.91
590.91
1002.85
870.88
888.19
767.25
775.21
874.93
897.69
815.28
946.68
725.06
648.14
323.29
537.23
218.16
720.51
684.66
753.50
882.84
901.28
667.86
724.42
1929.36
756.19
839.69
923.39
705.93
669.98
516.48
626.42
801.28
844.78
727.72
825.49
947.72
1053.15
681.15
777.38
812.61
1089.22
722.65
692.95
951.09
1063.07
459.56
557.94
277.01
1517.00
819.16
666.55
448.76
864.50
802.72
805.60
708.43
804.79
826.31
896.33
830.96
1064.03
944.00
1139.38
741.59
1156.04
726.70
662.32
622.74
875.60
1136.96
1295.08
735.61
789.80
917.93
757.30
720.99
1105.23
689.52
565.81
334.24
728.48
264.38
585.25
369.99
586.85
981.76
784.98
694.29
698.33
745.83
834.73
733.18
768.58
821.86
1010.84
656.15
711.92
644.31
1012.36
312.39
600.08
482.95
837.00
848.13
836.32
646.67
1063.28
905.11
733.57
921.20
1371.57
576.64
547.23
410.82
937.44
766.75
1132.73
870.72
437.86
774.65
704.01
647.26
1876.15
662.63
897.88
763.41
1038.50
1057.30
1098.39
806.16
753.94
558.27
712.77
897.10
1923.94
809.47
840.75
684.03
581.01
820.14
854.71
786.41
789.45
871.91
900.17
588.70
506.99
1201.47
403.13
560.40
769.61
588.71
858.04
770.53
791.03
803.47
934.97
952.85
914.72
870.67
1035.07
874.71
926.94
765.57
1100.99
1013.88
957.57
723.06
848.64
1206.62
1221.49
830.34
764.82
738.22
973.83
1038.66
1160.46
927.60
860.60
331.25
439.61
472.72
619.28
1005.04
1266.65
1343.42
1161.27
929.73
666.82
823.31
783.22
717.69
873.61
769.86
845.92
560.20
908.62
347.90
654.72
586.94
912.22
615.31
1104.18
852.16
1035.76
735.98
1186.64
855.63
1153.29
811.02
857.00
779.05
646.47
407.30
555.43
302.57
625.79
597.37
475.35
798.49
2171.59
723.61
807.47
678.79
746.23
778.40
1111.65
1008.72
1020.52
552.18
556.96
533.82
761.36
487.41
662.97
677.05
885.77
788.45
591.41
760.94
814.29
770.66
787.07
712.62
897.84
1325.29
531.65
469.60
790.29
546.27
770.62
666.61
826.48
691.27
665.77
812.06
1031.51
805.87
1116.48
918.96
1160.48
431.22
471.95
507.99
787.73
688.73
1293.27
1558.63
1547.15
1303.01
1365.33
788.69
899.60
827.60
873.43
904.80
862.60
833.52
448.17
287.72
506.16
805.71
1159.14
597.51
636.17
642.07
768.27
606.40
681.93
784.63
805.26
825.67
781.32
653.16
1074.45
729.93
807.98
627.59
941.96
426.92
478.64
600.89
1113.97
1347.22
1525.52
1252.00
1278.35
898.28
1100.37
903.33
814.44
565.19
506.67
943.08
1101.17
1197.10
510.16
534.07
1651.82
697.58
770.96
743.30
757.93
646.96
777.17
650.04
785.57
656.89
458.62
408.54
828.13
948.68
914.71
541.42
726.21
470.68
796.27
641.38
594.36
812.04
898.20
636.12
757.54
713.19
936.99
682.38
730.95
736.52
719.70
513.01
699.37
782.24
814.81
769.33
723.57
627.87
1775.06
609.24
873.10
968.91
878.79
698.34
749.51
891.13
742.66
462.35
891.45
684.31
661.84
1387.33
846.07
731.07
757.65
768.49
884.34
994.58
880.61
730.65
545.09
737.92
424.47
326.51
699.20
435.31
618.52
518.52
630.85
632.79
675.82
792.77
930.64
826.15
981.42
751.72
1683.76
689.49
653.44
747.92
927.72
871.59
1059.79
743.55
1108.88
1072.00
968.56
880.42
1600.41
980.73
783.09
786.51
924.77
700.34
649.52
486.30
583.15
321.87
609.82
874.50
583.74
843.25
1369.29
1390.43
1398.11
966.89
1010.70
736.18
923.33
831.11
606.49
374.81
817.09
474.83
961.63
658.42
531.80
616.57
924.01
711.53
711.45
707.30
1046.28
874.92
877.89
1872.79
881.99
478.40
510.78
728.48
713.02
438.18
1369.57
1556.59
1283.63
1145.89
927.06
1451.63
796.96
746.52
802.93
739.62
791.82
695.79
392.68
777.66
515.10
381.76
437.46
3329.74
573.91
866.19
1222.68
1036.40
857.49
795.65
767.12
691.81
903.62
937.75
477.41
481.47
764.80
260.28
613.63
552.96
656.88
405.86
651.28
769.89
764.96
680.07
925.05
865.09
880.82
949.78
887.43
688.09
1084.81
525.57
607.49
738.01
786.82
567.15
1091.90
1058.08
1040.47
1065.44
1051.28
821.96
815.32
814.86
853.29
628.64
589.52
926.36
513.76
510.94
520.23
923.83
513.19
933.36
674.56
813.06
816.11
840.86
939.40
647.75
1124.13
908.67
934.08
3052.68
857.47
458.40
602.22
556.12
672.88
679.49
943.02
678.41
747.18
663.56
1180.60
1006.83
1286.99
938.58
883.49
595.22
614.58
543.78
425.71
230.18
486.66
547.07
705.53
866.94
1712.42
639.18
823.59
835.24
792.30
871.77
990.10
731.52
575.13
578.34
651.20
243.49
818.31
1248.97
913.87
845.50
1006.61
889.44
820.49
862.10
863.05
804.79
944.19
832.44
467.31
1520.60
662.82
299.64
637.43
544.86
639.80
495.36
835.94
840.12
617.38
644.54
775.02
779.08
1367.85
1155.71
1014.46
720.38
946.71
461.99
901.07
870.94
1093.08
1071.05
1388.05
1085.83
1204.64
821.08
929.57
694.25
918.03
666.82
897.82
663.57
837.45
263.39
743.38
533.81
874.81
795.32
510.16
524.62
621.13
704.09
652.76
701.45
682.51
862.96
860.09
658.81
533.57
558.75
303.64
348.20
613.21
555.00
805.36
610.83
1114.15
695.58
741.64
701.65
823.56
2003.42
892.00
851.66
908.61
942.49
1169.98
1011.80
1032.07
1146.68
792.62
506.20
820.75
926.43
877.86
1149.59
1317.89
921.69
900.95
745.89
1007.80
902.31
646.78
498.19
569.35
1171.90
686.65
795.99
581.37
899.24
841.16
804.30
650.99
828.25
912.53
714.41
841.03
783.64
580.09
844.70
714.35
553.68
613.75
473.94
594.62
449.07
609.41
806.11
742.43
571.06
1290.51
867.29
912.75
708.67
896.28
616.27
734.13
942.74
731.07
666.73
824.69
650.24
1207.65
742.87
771.09
497.38
988.36
824.89
910.08
1015.70
1072.08
704.26
672.55
391.76
1026.01
1162.15
617.07
467.06
674.12
813.77
743.55
680.99
766.83
732.46
776.25
777.60
751.60
964.66
742.49
716.25
667.24
670.96
643.89
804.45
660.46
689.95
838.03
762.62
699.47
657.02
1513.01
709.43
822.82
843.56
823.12
418.29
489.46
346.45
442.21
708.90
592.33
456.99
727.63
1051.01
706.15
800.59
1117.14
884.18
915.24
933.08
994.29
757.84
936.92
997.54
678.51
1075.06
1019.70
774.74
796.63
839.17
1048.21
742.56
896.75
792.11
907.56
687.95
797.03
3356.75
638.57
366.95
716.22
559.72
591.19
402.82
592.60
657.73
633.88
886.24
803.21
754.44
1342.01
877.76
905.28
860.98
851.33
389.43
640.12
813.57
578.34
611.90
753.30
476.04
868.03
989.75
878.98
631.65
889.89
739.05
967.40
860.08
836.46
776.10
480.57
352.41
639.82
1968.32
602.50
597.24
504.50
760.14
956.34
819.31
899.98
767.38
826.30
1163.75
1380.45
1047.04
762.64
611.05
1310.11
1230.97
1348.29
874.91
955.33
850.13
1133.82
946.34
591.78
1685.86
907.00
843.79
793.01
770.99
860.64
533.53
590.82
403.21
453.68
432.47
590.02
405.69
696.39
784.03
676.09
604.78
772.18
634.72
785.44
663.21
1048.87
1006.71
878.24
601.38
551.82
861.90
816.82
749.01
592.72
857.13
899.37
771.22
847.00
816.60
852.53
912.06
906.16
3345.84
540.41
599.68
552.22
690.18
971.20
789.98
1256.95
1021.43
1080.91
998.59
896.03
1723.24
977.43
1060.46
1314.15
891.56
1094.08
539.04
752.26
1141.55
679.13
902.05
1070.41
1131.69
866.77
920.88
941.40
584.92
905.60
786.01
783.24
762.39
771.25
925.22
680.16
1019.71
461.99
516.10
685.77
923.76
959.26
1014.94
959.85
654.47
1218.39
926.45
1049.74
1323.92
1050.87
851.08
904.44
1139.93
1552.01
917.97
1131.61
698.81
1073.25
653.71
1408.61
822.65
698.88
539.26
974.80
905.53
871.57
932.08
898.91
448.43
442.51
394.10
629.63
518.55
643.51
666.68
511.65
690.54
842.42
834.43
715.64
693.91
849.51
757.37
827.91
3144.95
438.61
364.19
738.53
758.22
542.80
435.39
633.22
781.10
656.08
557.98
751.31
928.95
1164.37
1003.42
1039.77
833.48
854.99
807.81
859.97
861.16
880.72
449.79
670.52
583.69
2247.61
1025.78
745.27
672.11
776.17
865.49
773.31
890.97
1032.34
770.59
720.93
512.55
1185.42
779.55
1018.07
568.25
1018.42
1000.04
943.33
810.50
1052.46
887.42
1066.67
938.35
1466.86
945.22
623.01
639.51
392.13
357.25
539.10
348.19
485.90
716.29
868.72
806.39
815.18
1039.75
644.99
876.26
984.85
637.95
641.56
325.42
635.20
941.95
1096.17
640.63
928.22
1801.06
1138.19
1174.60
1020.53
1004.35
1148.80
1034.10
896.62
1049.62
964.64
615.99
1303.99
433.25
622.95
505.22
610.08
554.55
909.01
688.07
1187.65
1160.10
1327.60
871.56
1067.00
968.50
1062.45
1082.02
861.75
287.78
646.37
918.17
981.27
835.27
799.93
721.25
1282.04
814.24
649.63
685.97
866.20
580.12
763.04
1000.39
649.12
511.83
505.66
302.65
475.14
840.18
720.27
475.83
768.02
684.69
573.65
698.79
748.81
719.49
1001.41
712.45
908.30
545.11
1038.91
254.64
451.17
326.38
754.61
956.75
1150.72
695.51
862.46
639.04
690.00
1104.62
1065.70
990.69
1166.48
1288.66
1343.30
880.88
803.42
661.28
983.98
568.41
647.85
2835.51
1032.56
893.20
982.01
837.01
1315.24
805.55
1060.22
1035.70
530.21
497.92
563.35
1203.63
921.74
1109.69
1038.69
571.11
912.37
685.26
787.67
725.68
950.23
801.74
923.14
1805.51
911.68
453.42
609.48
712.38
501.00
475.42
693.81
478.53
681.83
725.02
702.86
575.91
1014.15
701.76
778.23
693.06
821.79
789.56
726.44
276.59
743.97
928.81
612.69
840.69
1250.50
1138.97
1251.41
1004.84
1154.12
840.19
789.31
700.91
940.13
723.96
635.66
464.50
1790.12
376.82
531.57
526.72
596.90
273.94
681.67
564.32
730.89
486.37
868.00
876.12
1081.72
1182.06
1123.88
950.90
1174.78
747.73
761.75
739.21
712.06
580.93
668.79
580.07
963.06
769.08
706.68
716.51
808.86
768.69
832.23
915.80
725.28
291.16
578.44
289.95
730.26
789.39
673.94
730.77
745.56
630.04
858.20
697.04
784.90
721.33
900.88
606.77
692.42
582.40
1219.79
505.27
789.87
736.35
979.32
728.54
1144.25
680.50
882.66
694.19
800.25
861.02
741.71
1160.12
814.11
435.22
718.95
548.11
758.46
424.64
537.39
584.91
626.27
597.04
828.83
2707.95
1046.27
864.61
879.98
869.75
1038.15
822.87
761.58
644.24
965.16
671.05
829.25
434.46
768.13
915.02
799.48
695.14
784.91
869.33
894.80
809.38
882.17
855.88
736.98
587.82
1227.33
614.25
647.82
816.70
489.29
588.17
839.32
624.86
788.26
781.72
1001.95
920.08
949.82
1208.79
1203.08
939.54
907.02
839.93
1055.89
776.63
1061.56
689.46
661.24
628.55
939.13
614.31
766.17
674.54
923.33
874.58
867.88
751.97
522.76
436.03
516.01
525.22
797.97
370.19
626.24
777.39
795.68
691.45
879.19
726.71
915.62
942.56
964.15
571.79
607.33
618.48
1281.08
1084.41
636.97
598.21
826.14
809.87
1171.64
942.11
868.20
581.77
790.77
737.40
855.88
866.16
912.12
557.38
832.66
1178.35
740.05
939.13
683.36
513.19
420.66
588.42
965.42
1920.47
949.37
970.10
908.32
771.55
946.81
910.34
607.51
304.27
620.52
367.90
509.24
423.97
562.50
583.17
715.73
763.38
735.92
1002.36
1131.23
846.97
1349.97
1733.55
2008.80
1142.41
873.53
359.52
580.66
1115.43
1249.24
1481.02
1342.05
1888.82
1585.14
1341.16
813.41
1130.86
865.38
755.94
1043.51
774.65
793.99
728.00
1025.90
888.39
1195.22
1067.94
1464.90
1506.24
1384.41
738.45
886.36
805.85
821.82
999.62
972.87
988.58
543.87
562.52
1184.36
683.75
729.08
621.88
756.68
753.91
914.47
728.82
1079.36
1132.15
1238.15
1197.37
1697.20
1233.58
1346.55
844.36
584.98
697.02
860.51
622.93
1062.35
724.98
1170.78
927.41
1326.61
1029.07
1268.42
963.45
838.94
759.27
881.46
518.00
899.78
998.76
859.32
1017.37
1094.67
1065.65
742.24
770.76
796.39
643.37
786.89
851.04
1007.32
850.87
891.69
957.72
702.32
412.57
717.11
949.56
918.55
856.55
986.14
1109.77
1197.37
965.02
792.49
2820.15
1103.30
890.73
854.69
842.59
1099.86
560.29
924.37
869.69
792.18
301.99
642.89
2681.91
985.84
991.18
1087.45
1114.55
953.71
754.41
833.24
844.84
918.38
787.28
861.86
1000.32
1102.35
1012.52
950.26
643.25
674.77
852.10
867.56
807.95
880.68
849.43
1209.08
2157.23
1178.25
951.14
595.00
1078.20
1021.11
1194.89
741.93
823.52
469.80
903.38
722.99
1020.67
750.60
745.09
852.74
913.20
1393.39
1566.43
1750.17
1050.34
817.70
1012.46
1265.96
534.05
663.10
638.49
1018.19
1013.58
893.45
606.73
818.10
788.16
869.43
849.80
1273.80
536.10
557.35
937.64
773.58
603.02
925.67
575.57
829.56
651.55
840.63
695.19
709.50
1115.93
923.40
701.43
846.92
945.91
657.77
549.05
771.95
734.90
727.26
486.20
645.52
2708.35
912.27
633.34
644.01
937.13
1284.21
915.24
1094.61
1048.79
893.87
296.24
646.00
2915.86
914.71
560.66
986.72
845.29
1021.31
615.52
759.03
651.94
766.32
669.09
860.89
992.53
1404.67
911.74
495.50
792.82
376.77
331.52
657.58
568.29
933.41
842.74
1328.06
888.87
1362.53
926.61
840.79
697.59
1139.99
962.46
904.12
930.09
1219.05
839.35
1058.83
503.60
860.05
1110.41
1386.83
1143.99
790.07
775.47
800.53
846.73
1089.83
914.81
932.99
774.23
863.24
1034.71
844.78
632.38
932.02
796.10
1143.02
855.73
1070.74
828.70
988.44
656.51
1201.57
976.97
1070.45
680.45
982.13
746.38
696.12
369.84
661.92
570.80
620.58
698.32
1095.35
632.41
928.26
718.56
837.27
831.92
783.19
711.05
689.32
706.81
1154.79
934.14
2134.13
961.35
945.21
837.56
1004.68
879.50
974.75
745.58
951.83
802.97
807.29
786.13
1890.83
662.56
758.71
331.22
669.43
561.02
586.32
678.56
827.33
623.28
819.71
661.29
889.63
994.10
738.81
827.07
730.87
589.87
868.64
344.43
509.39
372.69
845.05
567.18
660.18
916.08
1026.88
632.66
746.56
819.30
986.68
906.81
876.75
779.38
537.34
720.80
798.35
618.92
1398.65
909.16
798.37
647.98
832.68
664.59
917.75
906.31
1078.71
964.26
1166.13
1090.11
2223.30
1088.73
1302.04
1141.79
906.17
435.76
771.70
617.57
918.18
676.29
990.61
820.49
847.20
877.02
940.69
816.71
870.56
802.13
829.68
696.13
481.00
297.30
758.34
871.88
2068.25
645.29
986.18
757.14
1002.92
904.11
1039.72
876.12
1093.66
1033.10
804.29
774.33
1270.90
761.46
975.09
717.64
971.56
1031.05
1130.02
863.48
659.74
781.64
748.87
736.81
1071.50
849.07
831.70
830.54
809.74
690.28
496.26
763.44
949.94
649.99
772.30
947.29
1240.82
852.90
1074.19
909.93
1025.73
758.50
802.65
1259.71
1605.69
896.00
1037.81
1382.69
1954.06
1216.25
903.25
810.85
943.52
623.25
744.51
821.19
784.08
880.15
901.43
891.49
1912.72
491.58
612.15
683.80
680.81
511.82
699.08
399.38
766.98
684.19
691.09
848.56
992.44
990.72
1112.70
909.12
1089.65
670.26
705.38
423.09
811.75
502.27
599.89
591.43
702.18
2117.27
961.85
762.57
1244.78
977.81
933.08
867.36
1075.07
840.28
577.32
679.85
500.25
1904.09
786.75
672.67
856.73
880.65
1066.07
1068.22
1232.75
1097.67
1249.84
831.92
996.18
1142.82
667.99
947.94
640.91
667.95
755.99
949.45
831.88
845.82
1169.56
780.99
855.80
2111.24
956.42
851.77
945.23
931.68
940.42
644.78
686.00
1054.89
1362.46
1200.55
1373.86
2858.05
1245.46
828.03
817.27
783.80
893.95
774.18
828.18
889.52
1081.28
732.63
794.89
2033.19
633.66
624.84
577.42
914.14
557.72
965.08
960.22
681.44
731.82
882.05
875.02
883.14
1286.25
1022.39
730.27
942.17
994.95
535.14
588.52
627.27
803.81
571.91
882.68
775.89
1303.15
833.93
924.39
777.32
1009.63
749.77
840.88
302.54
576.97
324.41
613.72
599.67
1259.37
1317.93
1283.37
976.17
958.35
489.08
1288.34
1097.20
1136.47
833.71
1009.14
593.09
920.63
657.74
747.47
432.44
889.61
703.51
589.09
700.83
806.02
977.02
809.07
883.43
2021.61
782.02
844.83
930.93
927.02
692.18
858.03
1047.53
1290.38
1205.01
1334.70
1178.97
2053.06
1000.77
1026.27
798.15
904.89
939.18
845.73
952.27
1020.14
562.92
754.66
653.36
1166.66
501.93
755.27
557.34
824.85
843.80
838.31
687.04
886.87
902.11
1050.38
839.76
2190.66
675.84
767.37
651.59
990.87
743.48
1151.72
1011.98
821.77
898.19
765.69
673.63
1111.94
858.76
923.50
870.27
1163.52
775.30
570.70
685.11
895.55
795.45
648.14
436.31
753.16
733.05
959.21
952.21
1240.77
932.56
907.73
674.79
918.22
796.10
927.15
420.92
586.02
1503.29
708.05
452.90
841.49
720.60
1078.39
809.97
980.35
635.13
844.11
746.70
874.08
886.00
1287.20
946.85
1074.20
664.31
860.47
581.97
584.39
854.00
1216.20
1011.67
1079.61
1202.46
1771.94
1131.60
1252.12
1039.82
871.21
1141.27
1430.32
1665.40
1344.00
1161.37
715.82
589.82
650.34
702.52
925.36
936.72
828.06
857.00
897.48
786.24
1149.77
832.81
993.60
631.77
571.16
287.93
548.32
416.87
864.00
780.72
689.62
924.43
788.30
850.93
1094.77
951.09
1262.90
1328.66
1383.19
1274.99
1028.22
837.09
479.09
398.19
660.86
835.59
561.81
1907.60
872.82
828.89
1238.58
1029.34
1166.62
1186.90
1237.71
874.98
673.68
487.71
628.22
805.48
649.15
464.76
682.51
527.18
822.58
875.99
769.00
693.62
896.34
756.87
1031.96
930.24
1070.21
950.18
966.93
952.21
1007.66
1080.85
943.24
840.39
1295.68
954.93
1098.86
1462.08
1295.39
1133.85
1145.50
979.22
980.41
994.56
673.85
671.40
597.88
757.97
752.79
1021.03
542.02
754.16
833.52
832.83
790.00
824.40
834.28
874.27
1302.64
995.64
907.16
892.65
1127.40
955.53
922.01
436.06
651.10
703.11
869.10
902.60
751.89
882.59
956.96
1933.58
877.23
720.73
922.37
444.55
538.01
365.46
966.80
633.38
831.25
719.55
852.01
2698.04
1081.79
743.62
1068.33
1051.43
1062.99
972.17
1213.73
1122.44
1335.05
1116.01
683.12
609.34
1389.80
1743.06
713.46
1084.92
840.49
789.98
933.83
929.65
966.34
863.29
1236.96
1125.59
1082.88
691.31
452.46
925.21
620.92
963.96
1068.02
764.92
903.69
818.63
1378.48
849.57
857.52
771.69
825.05
921.74
1284.18
1172.41
1332.46
1377.30
1380.53
786.60
1024.43
523.10
994.66
796.25
789.10
683.05
973.16
706.11
824.89
1026.07
893.97
1048.74
656.14
301.70
741.46
661.32
749.39
991.71
948.20
706.59
857.62
732.15
795.89
690.41
2181.04
766.99
983.68
960.56
748.01
794.89
741.73
407.67
592.11
394.40
760.06
696.20
1235.09
1074.82
929.51
916.85
909.72
934.76
1038.93
916.99
968.39
608.63
532.04
459.76
930.86
1206.02
1151.23
890.63
955.71
895.15
887.25
905.18
818.19
838.57
1022.96
848.27
935.27
1389.03
665.68
581.82
1420.68
1196.42
1076.68
611.26
1075.30
895.32
1277.90
885.78
800.15
797.84
968.59
884.80
841.30
827.58
686.56
820.67
655.43
750.01
918.93
685.64
756.25
2338.15
838.51
849.19
811.44
731.66
1108.64
920.90
1079.29
894.51
1047.04
597.96
920.03
1813.71
621.79
860.35
605.22
727.96
1354.68
1490.08
1780.60
925.71
965.10
1010.87
909.24
930.98
987.18
857.51
678.47
191.35
649.38
371.80
762.14
846.45
641.15
853.08
866.57
1384.52
810.93
804.01
1039.49
976.22
1034.60
865.15
876.03
495.17
1037.37
1035.15
1202.53
1395.34
1541.25
1113.08
1047.80
915.61
756.08
843.37
957.05
922.08
977.81
1002.74
2291.94
861.71
1067.02
982.30
1048.05
488.58
927.94
674.81
777.37
903.29
927.49
558.72
1862.58
815.87
803.20
838.97
904.30
755.28
671.39
519.64
1128.52
896.51
850.08
727.37
1360.44
1499.92
1360.26
804.47
754.03
794.20
933.28
724.29
1023.48
738.48
439.64
650.83
511.82
605.67
634.92
423.19
950.04
534.77
754.08
1018.63
789.47
825.67
943.09
982.96
937.31
2076.02
1156.98
917.31
1356.16
1287.09
1094.17
807.28
1234.89
1057.59
1517.75
1264.58
1144.80
608.92
718.24
874.42
886.88
950.07
1124.70
1324.81
1242.21
929.11
506.90
365.64
1212.12
838.42
914.61
1000.90
1017.52
672.83
770.21
793.13
878.45
1023.40
954.35
776.85
1845.89
790.27
1397.03
1382.86
1321.92
1250.97
1430.59
1542.83
2072.92
1516.53
1111.44
952.77
925.06
959.27
784.94
945.41
1120.92
777.08
575.93
412.90
572.12
681.76
629.43
936.31
586.40
779.15
778.54
711.30
825.26
740.71
821.33
719.64
841.32
670.32
796.46
513.73
2038.01
1133.13
950.50
572.26
1106.89
1086.17
1541.51
1444.40
1879.43
1332.85
986.63
670.41
1024.08
981.94
815.47
535.87
1136.60
564.18
558.74
592.07
766.85
574.42
837.56
867.77
1572.49
1434.10
1573.44
807.41
904.90
733.27
1002.11
534.12
516.35
535.94
752.12
843.68
1194.38
757.18
1190.13
789.61
820.16
561.71
726.31
771.40
813.75
801.75
1001.64
815.69
876.05
749.12
473.20
244.04
565.43
456.26
570.51
752.07
806.97
720.64
905.60
806.91
964.79
952.55
898.17
1043.60
1115.88
736.53
882.39
557.56
1091.81
909.66
1014.30
744.46
2058.37
1020.14
710.48
830.66
1101.22
930.53
760.94
1003.55
1026.39
521.63
486.54
337.96
1752.20
586.70
748.94
722.85
751.13
761.79
928.52
631.85
1042.03
846.61
1009.73
1025.58
1287.82
1163.83
1194.70
852.74
606.26
409.68
724.69
853.40
936.06
1081.56
1326.27
922.44
1604.42
995.74
931.37
883.71
969.78
846.27
634.61
436.63
730.25
436.55
793.39
752.70
1727.34
670.37
951.63
703.70
782.60
694.11
952.79
893.30
1013.16
885.92
1046.78
508.56
600.71
730.81
526.83
703.48
858.96
949.37
1465.96
1289.70
1610.48
1031.27
881.25
839.64
888.18
955.65
890.59
880.30
808.05
380.20
686.81
386.48
611.91
887.86
646.09
906.24
924.93
1723.08
765.15
864.00
905.57
901.91
1112.97
1036.44
986.08
623.40
1095.88
878.06
867.37
1810.56
977.70
571.26
965.00
1012.88
1056.09
880.10
736.16
952.65
908.17
914.96
846.28
1369.45
583.91
579.49
452.54
739.35
454.01
383.96
695.02
699.84
797.50
653.71
1010.77
1059.15
1247.40
1009.73
1029.80
833.96
883.79
716.94
1058.08
643.24
916.35
543.12
949.36
1813.43
1290.60
845.52
945.62
736.19
885.61
887.93
928.84
929.53
589.09
389.85
658.41
1917.56
788.29
567.39
789.47
690.73
644.33
754.21
873.18
797.31
856.65
834.90
979.27
910.62
1308.80
601.00
925.78
875.02
989.14
1038.97
1241.12
978.03
1417.87
1214.60
1371.49
632.74
981.27
842.62
888.38
877.70
960.54
750.62
754.39
393.43
568.26
371.93
474.99
714.12
943.08
678.05
1008.17
792.10
823.96
969.31
1174.47
841.03
975.90
954.49
865.23
698.84
1148.85
821.93
892.36
737.33
892.10
432.60
804.02
677.52
760.13
544.43
959.73
914.98
2356.61
981.30
993.51
449.94
508.74
433.68
710.00
560.51
667.07
460.36
626.42
764.03
919.12
678.95
780.70
865.06
1035.08
948.21
1115.93
1044.64
811.52
495.36
726.37
497.22
770.47
948.56
714.56
1008.30
841.33
825.06
910.32
904.91
907.15
846.35
1139.82
959.75
1246.29
1469.31
1108.36
996.44
1446.76
797.59
684.10
1327.61
1914.46
1887.23
780.53
830.06
1925.87
767.36
808.42
919.28
1173.40
776.96
763.61
893.30
1040.33
663.44
787.21
694.80
774.89
534.94
660.89
484.94
868.34
976.64
888.04
745.50
870.92
925.50
633.44
359.95
665.60
1527.37
829.08
543.99
686.04
688.46
929.79
954.62
1191.89
1131.38
1283.54
972.55
1605.40
2131.46
1023.28
749.70
1342.93
1092.12
1351.71
848.48
824.60
388.28
789.12
1012.94
678.11
691.85
853.87
859.68
697.71
846.25
817.43
575.33
691.06
538.80
600.13
448.46
438.15
2243.15
590.63
773.16
757.12
657.95
760.29
648.46
780.95
892.70
1050.48
905.96
1319.11
670.03
1332.53
855.23
1002.47
846.77
799.19
867.02
820.64
767.18
721.65
823.97
690.94
768.40
1345.64
984.32
794.66
411.47
681.80
363.24
648.82
659.39
673.73
561.74
746.93
849.59
954.76
790.97
1172.60
1042.99
1004.35
856.40
1026.38
888.39
974.55
936.50
1018.12
831.01
2214.49
872.80
732.18
828.43
776.24
557.44
892.92
941.28
1100.11
873.38
863.88
910.89
885.34
837.95
960.57
746.31
756.32
429.66
546.90
925.59
824.30
625.06
693.36
814.50
895.25
2245.19
969.78
795.36
772.00
681.33
777.97
544.79
561.99
634.74
635.45
510.22
783.20
717.67
977.12
649.18
831.41
862.76
918.82
792.28
896.23
409.88
420.77
712.36
990.42
709.27
671.09
405.61
748.72
569.49
783.95
721.25
616.48
743.92
987.46
812.74
1162.40
870.48
1018.54
1583.27
780.97
671.29
804.43
874.09
1196.50
988.69
1016.10
968.52
1074.59
870.90
996.25
1100.03
1059.01
869.92
887.24
563.42
629.95
554.50
863.70
766.68
730.05
738.53
1189.66
1353.74
842.25
704.03
611.91
753.66
890.01
669.15
818.35
400.26
265.59
712.97
540.76
2523.40
790.29
616.02
653.65
690.40
822.44
725.43
717.35
715.93
1023.17
819.02
853.15
1014.90
757.32
548.96
541.24
607.64
846.98
706.65
781.83
680.30
608.48
821.53
839.47
924.00
1085.50
1016.85
930.98
918.37
869.96
528.31
931.09
889.50
761.94
887.86
815.70
622.82
862.29
931.35
894.17
806.71
957.95
703.20
959.01
729.66
999.15
693.55
792.61
727.01
1289.96
1876.46
732.71
894.24
450.89
899.55
810.71
649.54
934.71
889.55
992.13
1005.68
986.51
2717.97
942.06
568.04
841.32
641.11
642.14
588.88
886.91
920.86
1161.55
819.55
838.71
730.04
826.14
898.33
926.16
888.62
786.52
484.23
582.84
416.84
573.91
437.85
755.64
514.18
717.47
755.86
913.84
802.75
846.93
680.80
790.49
1194.79
1309.62
726.49
658.55
792.65
599.14
857.71
766.54
575.17
1055.15
982.43
1011.54
563.72
665.82
614.99
812.63
714.09
1028.69
1364.68
791.58
361.64
949.31
676.03
616.01
486.33
801.92
632.14
852.17
663.86
802.02
3291.16
1084.44
965.42
941.26
947.37
846.90
606.51
798.84
855.09
822.89
687.33
790.89
693.13
1174.96
926.66
835.27
606.33
856.44
938.31
761.09
875.66
835.99
415.42
467.22
553.59
1732.20
504.78
702.57
696.23
601.92
839.76
594.06
713.44
818.25
1103.66
1317.92
1240.51
1598.04
1762.59
2138.03
1603.79
944.65
692.00
595.59
589.09
850.63
926.33
796.95
715.21
1003.76
776.34
875.63
1083.43
797.00
806.88
579.13
528.74
852.64
1124.60
845.40
623.87
1997.31
699.80
788.79
1044.21
675.14
652.67
816.21
888.89
984.00
760.90
1010.23
727.39
386.43
393.24
907.10
1109.40
774.22
605.84
752.77
920.71
903.70
675.02
857.16
788.58
830.48
1332.21
982.93
824.85
516.53
420.05
417.29
503.68
849.25
830.69
426.53
744.79
767.53
632.46
903.32
804.41
1121.17
1095.73
1714.43
1023.62
1176.78
1065.91
1382.45
918.72
722.87
1593.35
789.43
589.67
821.94
656.90
796.73
532.45
858.03
779.80
781.29
750.95
876.33
836.92
365.41
231.57
623.38
202.42
546.77
882.69
738.30
551.72
760.90
805.67
728.14
763.62
971.68
908.59
1026.51
1137.81
1478.44
1081.21
873.55
434.02
201.24
517.99
978.11
1269.66
1933.08
819.14
427.46
928.09
797.13
912.13
741.11
938.96
626.06
773.07
795.88
1220.18
1132.79
667.35
677.97
782.54
745.94
646.70
709.17
794.76
906.90
922.90
944.54
851.64
890.21
1132.62
722.02
625.31
634.85
270.44
652.87
825.63
826.05
893.78
868.35
807.31
815.62
3601.38
743.99
893.38
1078.61
818.67
354.52
817.43
547.08
464.18
821.48
686.39
756.95
877.44
1094.93
746.41
843.28
849.22
1071.98
815.29
749.54
743.93
999.78
595.38
784.71
774.30
1994.32
582.33
641.18
467.87
976.32
731.60
919.85
648.14
996.51
846.00
798.19
851.12
831.99
793.25
513.23
378.46
445.39
659.68
601.04
559.70
396.69
773.37
741.63
676.28
825.53
3213.80
1061.80
893.72
1083.46
1162.65
1132.44
652.98
870.70
1056.57
830.16
975.67
636.59
1394.17
880.71
850.75
704.52
779.39
1047.56
874.46
929.86
905.25
820.68
351.11
600.38
3377.69
571.31
316.25
803.44
638.60
887.07
774.79
942.06
750.08
1001.78
810.80
995.36
908.27
1178.87
999.86
831.02
897.94
853.58
803.03
630.04
1006.31
758.18
839.50
977.77
711.11
718.72
881.08
796.36
1107.68
1018.31
934.46
672.37
776.69
511.07
390.15
667.42
659.59
499.73
1035.86
623.33
903.23
582.30
813.26
789.47
772.74
880.19
835.84
1087.66
860.64
984.00
1780.28
1031.46
1033.62
1247.56
1086.00
1318.31
1040.68
1154.58
730.65
1086.00
988.02
2549.35
927.58
989.27
615.02
439.41
406.67
685.66
571.60
1029.46
951.48
707.46
589.93
1934.47
727.93
867.15
850.05
1224.43
1033.77
723.02
845.22
352.95
886.65
475.85
630.42
665.53
852.24
1067.39
779.17
1072.45
829.22
757.72
854.22
738.49
813.78
1014.00
918.17
1064.57
698.69
549.42
647.66
516.77
602.04
416.64
398.88
774.39
711.87
771.73
720.99
1085.02
1494.15
1210.90
936.96
1307.83
975.34
1145.48
954.16
1017.80
679.93
493.01
669.86
780.51
1156.31
1285.27
982.73
947.85
940.49
747.43
1028.60
1280.68
1047.01
633.69
813.85
1094.90
966.51
642.37
763.69
453.48
763.86
739.57
889.16
869.55
962.36
966.85
985.92
1066.54
1020.03
1234.15
949.22
885.23
1051.55
886.77
626.80
900.11
953.65
1091.42
1188.17
1310.69
784.84
1015.83
917.48
1054.63
964.52
838.95
672.46
614.76
521.08
733.59
607.48
1293.13
531.15
864.65
815.22
770.89
722.93
1101.56
1031.30
979.58
880.18
989.62
974.36
1379.80
565.78
992.91
621.41
921.07
650.06
686.33
953.36
892.22
684.78
663.52
849.44
2011.09
803.49
763.33
805.77
750.16
476.67
707.00
559.37
521.05
659.42
725.04
468.62
787.50
1089.00
747.99
779.85
946.44
877.74
836.22
780.90
1024.59
698.61
863.23
637.39
752.28
1280.45
745.52
741.35
937.90
935.12
1148.55
803.58
828.07
1085.15
860.72
1007.26
795.61
1577.00
549.80
728.20
626.54
571.81
467.96
655.59
678.24
683.93
745.90
817.06
706.22
781.88
973.19
995.19
1067.92
1031.28
1126.01
619.32
872.93
861.91
1030.83
988.20
1001.07
2436.46
972.85
874.63
747.37
926.02
708.56
1058.71
858.72
1027.43
891.68
900.10
631.00
966.28
803.11
807.19
878.50
908.77
705.93
858.07
665.42
1014.19
1055.50
1049.47
1290.32
3243.60
1222.26
1027.02
1268.41
956.97
1147.28
537.09
1163.75
842.18
1095.27
954.36
1216.26
924.16
736.64
813.00
1060.03
1023.12
978.46
1082.42
973.41
562.73
872.37
321.09
850.31
627.20
489.16
780.98
661.63
956.39
744.60
704.58
792.64
823.82
1061.22
1023.46
1064.25
917.95
1041.99
463.61
627.62
575.62
882.40
765.38
766.54
1001.61
999.49
829.22
683.12
1066.04
833.80
914.60
863.37
976.21
370.77
812.67
334.46
538.86
791.08
540.69
723.74
1072.98
759.42
762.08
607.41
958.11
1019.42
1138.09
1227.14
1014.53
848.25
562.00
538.16
794.73
731.52
736.67
651.30
690.36
1030.78
1061.39
724.26
866.47
826.93
932.54
833.70
1355.11
847.90
871.38
237.94
295.54
803.30
577.05
577.47
898.62
670.10
633.00
618.16
810.65
1005.55
845.28
991.79
934.21
1039.69
930.71
1049.32
802.25
850.69
1009.03
959.15
843.03
1273.28
1132.60
1207.07
1077.50
965.30
1014.86
1054.96
1045.30
974.54
968.33
931.10
2189.58
1122.02
701.10
759.75
776.07
1085.77
852.77
1031.08
837.72
840.86
919.58
840.31
2170.99
883.11
1006.08
894.65
752.11
896.30
862.71
1112.92
785.53
976.86
538.88
799.19
3783.31
1157.74
749.95
910.85
946.73
742.28
929.94
782.82
1006.62
595.74
345.23
452.90
395.11
780.50
463.93
814.27
571.21
771.11
845.81
911.35
942.60
1090.26
937.38
1061.39
824.43
2334.47
649.60
590.74
789.47
926.41
615.02
853.31
647.66
973.14
750.78
792.12
651.69
811.20
906.00
811.18
891.85
869.16
775.46
551.97
663.08
620.15
642.77
1144.11
1020.79
1110.03
1342.17
729.22
761.34
806.78
744.34
984.36
1006.76
890.38
889.76
961.37
850.58
1078.58
1708.36
997.72
760.35
1062.30
966.24
1260.63
831.07
802.53
816.74
540.84
768.69
757.29
1357.89
789.56
548.03
252.14
523.51
340.25
763.87
659.82
497.32
765.22
940.89
1129.87
1035.38
1150.52
1135.53
1227.37
1192.57
1359.76
1058.05
945.28
814.23
425.46
1336.88
809.05
1396.73
798.42
649.35
1082.46
965.49
946.46
891.15
847.94
813.83
857.33
882.28
351.09
1158.97
676.85
862.79
526.51
545.68
811.85
567.68
725.25
664.49
851.24
836.82
988.57
928.39
976.86
719.82
993.71
736.30
829.10
539.30
851.94
445.09
777.63
749.94
898.58
895.57
1910.29
588.87
759.39
800.61
656.10
1024.51
583.48
561.23
330.62
246.81
562.64
437.33
518.23
760.51
603.34
804.53
539.50
681.96
605.48
684.75
834.79
876.07
909.14
727.53
837.07
346.19
862.97
653.40
858.83
601.88
736.87
659.72
786.69
834.89
523.77
592.07
813.52
751.47
763.90
898.82
735.95
349.89
385.54
425.57
362.33
975.16
487.76
455.99
670.10
703.83
650.51
1906.21
1090.22
999.96
974.29
844.87
1061.82
645.05
932.38
1056.35
960.30
1056.07
932.80
853.06
743.39
883.07
808.80
799.87
633.06
732.35
620.50
947.98
773.35
870.25
308.71
3028.99
596.08
462.34
558.06
578.99
767.95
679.04
817.32
869.43
795.04
777.13
1033.74
889.13
1321.60
1044.00
1115.56
978.79
1229.77
892.86
894.40
637.01
936.74
1072.43
1288.52
1022.00
1103.05
561.55
736.02
772.38
799.81
856.48
889.11
680.98
403.29
375.11
393.83
624.55
1537.66
860.94
310.71
748.34
639.42
696.34
812.87
888.78
1332.95
1176.07
1348.76
1266.99
1582.08
1175.69
1653.82
1169.43
1300.40
736.86
854.08
623.44
537.09
735.00
435.80
758.39
715.14
810.27
646.05
785.31
671.10
522.50
584.64
500.37
737.38
536.63
550.17
599.96
669.00
1036.06
789.14
859.09
621.98
693.14
944.13
875.29
1103.20
830.30
1088.38
656.94
611.19
691.48
858.29
775.08
1355.45
1401.57
1270.90
737.21
723.96
786.41
618.74
732.46
895.14
1328.69
835.62
459.55
702.47
805.09
552.67
771.74
781.61
755.29
706.99
898.80
1006.98
842.35
1025.05
1006.37
923.95
754.80
845.25
387.08
336.91
547.53
332.79
556.43
372.16
635.52
1413.26
1011.46
1124.24
818.00
1076.53
826.33
1016.79
965.24
821.21
578.03
438.30
466.58
452.02
345.34
411.96
549.18
530.68
712.06
763.36
733.52
754.10
703.94
824.41
957.59
809.11
843.09
924.68
1038.23
790.24
1075.97
938.44
787.17
876.07
700.22
1257.44
853.25
715.60
912.19
849.96
780.26
786.86
847.05
899.39
307.16
444.19
466.72
722.05
379.40
674.43
2887.14
610.26
842.37
647.24
607.71
884.43
1059.82
1068.87
1056.86
1120.68
672.08
937.94
1945.48
916.73
563.43
891.47
532.73
651.81
556.75
841.39
826.16
557.30
815.37
883.09
895.63
1131.20
771.15
533.99
299.61
650.41
1052.68
991.19
927.18
848.82
530.26
652.78
699.46
1331.30
969.37
981.87
965.34
1113.69
1075.19
1030.57
830.60
914.69
741.20
1039.17
849.75
1114.70
987.13
1193.46
1102.84
1014.09
851.32
835.35
992.17
627.80
861.87
610.59
3510.69
697.29
998.81
1101.90
1089.64
1100.71
725.61
682.51
865.43
668.91
838.75
853.16
3046.74
1254.59
1041.29
1109.26
822.06
539.25
603.75
775.65
655.83
750.88
751.13
918.90
2934.29
940.15
800.24
599.74
780.28
931.72
991.45
878.48
1038.47
920.70
687.55
978.29
633.71
1041.85
666.86
777.10
611.19
774.05
741.71
800.85
744.04
962.32
891.09
978.50
826.33
1250.52
863.63
1041.50
1009.42
837.39
537.71
1028.71
901.26
907.44
893.60
1032.32
627.67
769.26
956.77
815.93
750.27
646.15
955.49
402.55
688.40
270.38
393.87
394.01
466.59
722.56
798.67
744.94
705.81
825.28
702.75
884.92
968.56
959.23
778.43
908.76
822.30
816.16
1727.85
1072.50
518.08
757.50
588.42
1188.20
787.48
1031.69
773.56
975.96
845.94
761.12
2060.14
962.25
644.21
479.45
519.09
332.43
561.89
596.49
672.25
686.65
688.90
821.19
863.20
1028.18
865.49
799.17
877.43
788.95
779.47
782.87
487.80
1052.49
1245.76
632.50
502.84
1415.86
957.67
1044.24
993.66
787.83
838.81
800.93
706.64
746.65
899.59
899.55
774.94
1110.38
894.44
627.31
568.75
660.98
654.29
609.41
817.19
664.34
695.82
784.85
820.24
815.87
753.71
911.27
988.42
982.69
753.05
923.33
872.41
886.91
704.81
822.47
999.74
964.61
2921.79
809.65
687.37
859.74
690.57
886.96
883.08
740.25
881.52
616.27
543.66
597.37
713.73
820.92
633.27
658.39
587.94
736.13
745.50
851.73
782.94
811.70
799.99
945.06
783.59
885.74
872.52
839.56
664.80
807.51
768.36
1136.03
921.09
995.35
879.14
942.02
781.73
877.85
1129.63
911.59
990.70
678.66
643.32
507.50
598.30
746.82
431.89
464.59
741.92
519.46
699.68
640.86
763.45
829.86
745.29
799.74
783.42
731.72
633.03
548.85
508.89
700.70
525.30
981.60
1124.64
1612.68
1426.64
1173.17
709.98
723.70
671.49
629.82
902.74
681.88
508.48
577.64
412.52
588.16
458.57
573.50
520.06
528.15
823.93
592.88
769.92
880.89
837.07
976.98
1895.97
851.57
752.02
648.52
709.91
778.17
585.33
645.25
710.00
743.40
688.00
1013.43
925.22
839.03
898.83
597.18
779.66
661.08
637.34
420.24
381.15
479.22
672.05
613.90
597.64
1777.13
603.09
604.29
689.22
836.55
787.56
909.58
680.21
887.74
801.35
922.24
812.34
751.05
742.33
933.27
555.93
926.00
737.89
1017.34
775.08
794.35
553.59
804.01
689.24
659.58
674.40
703.64
589.63
372.42
253.92
607.75
416.96
411.72
573.72
470.10
584.44
479.02
546.02
703.16
893.47
969.83
692.17
768.30
888.91
905.82
398.62
919.55
546.08
926.54
726.75
796.14
1748.15
1002.95
772.27
810.35
699.47
736.60
756.57
698.18
762.03
635.68
467.62
396.11
609.46
482.99
541.97
344.74
537.06
586.76
668.65
649.77
680.05
727.70
594.22
860.03
701.32
780.57
730.44
823.20
470.54
857.47
817.24
913.03
567.62
618.60
664.68
756.58
642.68
455.37
1810.08
589.92
772.44
824.99
774.12
673.35
483.60
271.99
565.93
544.65
1026.08
658.66
402.34
805.71
677.41
729.53
743.51
718.02
717.31
852.72
897.82
814.57
634.52
720.73
659.13
1015.98
764.07
781.03
758.76
937.17
803.21
895.31
568.38
933.56
802.32
799.58
643.41
821.05
1212.81
481.02
507.99
393.58
459.34
549.01
369.84
650.26
539.18
558.96
540.19
763.25
831.78
1046.86
902.87
1084.36
789.08
995.46
828.98
689.40
502.88
664.62
438.55
748.17
435.21
1085.58
649.75
639.12
594.26
723.87
618.35
794.95
892.75
685.50
396.10
469.40
386.25
408.51
796.00
713.14
798.48
617.11
636.18
602.52
680.23
771.20
702.31
933.28
840.46
964.29
1877.47
999.88
959.10
712.86
418.61
783.18
648.94
810.28
929.42
1142.30
694.83
585.55
2670.06
800.49
724.38
710.18
870.96
422.02
679.13
307.26
238.17
482.01
941.25
607.51
683.20
850.41
768.69
736.13
597.50
765.63
888.20
1025.09
936.46
920.26
570.69
781.83
767.69
828.27
712.10
865.47
909.33
966.67
846.28
925.12
740.88
691.58
720.64
742.85
853.19
858.07
1910.54
625.36
485.25
738.21
842.09
642.86
723.84
755.37
662.14
836.67
703.21
856.42
782.15
1270.72
944.55
904.29
949.93
1066.03
653.92
935.82
965.59
952.99
667.46
939.69
628.14
1096.45
808.31
640.79
695.65
575.64
878.21
772.37
931.32
880.58
471.94
504.88
326.26
910.70
432.08
494.88
341.34
387.95
737.98
504.75
725.24
939.44
947.40
1144.11
845.22
1782.97
1026.04
1104.60
902.74
1049.36
742.84
872.26
580.79
730.24
649.75
939.41
644.88
1041.34
852.44
751.89
780.71
862.73
880.34
486.03
481.80
410.12
611.88
353.62
488.60
618.84
659.00
723.55
815.93
915.93
715.31
843.35
787.48
771.44
788.94
866.48
536.04
587.91
2266.47
737.44
713.09
1055.49
657.22
1323.86
745.66
1084.83
636.67
840.33
835.02
729.46
2792.76
701.56
809.74
449.50
606.71
460.66
1018.33
613.67
302.58
650.02
709.77
647.19
724.08
1116.73
780.93
822.57
954.14
795.57
877.78
933.67
644.94
892.43
832.92
787.01
738.98
798.18
653.35
952.11
705.10
812.25
757.74
1019.64
843.15
708.63
796.60
868.27
429.68
340.73
1404.69
340.28
492.57
465.25
702.04
481.66
810.61
510.13
604.67
922.68
773.78
932.46
825.39
1061.00
878.68
916.60
448.09
1019.76
719.52
833.85
626.11
948.82
808.27
1066.02
769.85
751.04
728.94
572.45
775.07
715.55
646.52
499.78
503.23
466.18
352.22
493.97
429.23
554.61
599.65
657.53
583.01
759.17
544.65
831.09
860.19
976.15
763.22
789.19
491.12
765.74
2032.20
866.08
609.98
801.56
617.30
1034.87
743.80
944.56
527.28
758.51
691.39
637.44
615.92
860.54
909.03
558.71
450.56
435.77
670.74
509.16
833.55
468.09
570.21
555.78
570.75
612.38
860.38
788.88
812.83
886.28
766.99
898.22
755.37
974.91
442.12
570.83
674.94
568.79
1791.36
1101.87
815.09
821.97
691.95
896.50
798.69
448.99
792.33
610.22
522.72
336.26
534.20
412.90
879.57
647.12
502.72
423.13
772.57
464.30
732.46
765.75
870.48
1005.30
762.29
963.96
911.03
886.00
866.50
654.61
588.14
817.19
811.00
788.72
671.41
835.56
667.16
625.32
1048.00
700.06
646.60
726.63
648.33
575.75
627.45
427.19
262.26
313.02
369.30
475.83
362.43
608.32
512.27
686.46
553.44
822.44
637.40
840.21
666.91
721.45
549.15
943.40
684.63
703.48
744.87
940.46
549.96
1010.59
810.83
923.59
656.09
819.75
627.36
732.98
700.00
569.36
1087.20
474.11
511.03
796.69
597.17
767.09
487.25
531.44
551.19
486.00
618.56
417.03
566.18
787.10
616.74
676.92
791.85
687.84
533.90
710.74
699.78
805.33
529.14
690.88
579.09
838.14
768.83
797.75
718.77
897.46
832.23
713.37
844.38
871.61
576.77
498.45
155.03
458.37
922.90
356.72
596.50
350.30
630.45
362.04
465.30
460.72
621.74
683.76
561.14
641.48
549.77
751.05
754.83
511.67
240.64
657.07
657.64
786.64
929.20
869.45
624.88
531.84
627.64
682.76
539.48
628.15
590.80
483.75
354.63
574.71
649.30
529.57
420.52
553.74
548.20
533.27
2096.09
661.35
622.33
888.14
818.60
783.86
680.67
690.45
500.57
540.00
628.47
784.43
276.71
997.47
397.87
791.47
592.44
765.97
502.10
593.99
683.24
730.53
576.46
735.50
732.23
538.73
473.17
448.04
372.46
307.47
526.56
371.03
585.91
440.60
538.75
662.51
618.65
876.53
2050.64
840.00
717.67
971.11
652.18
815.49
791.00
755.82
502.24
754.43
498.62
712.05
524.50
698.03
529.42
520.75
498.26
430.43
611.52
584.88
579.09
504.24
447.08
383.09
652.41
466.45
709.03
326.12
685.39
436.62
560.96
630.52
630.09
612.91
588.08
726.96
713.60
781.65
2061.84
751.98
684.92
870.67
583.46
809.98
749.73
984.29
657.37
544.34
618.85
496.30
599.64
1102.95
740.66
876.97
557.89
567.40
416.63
413.49
372.16
521.79
454.41
288.62
641.21
498.73
407.41
689.57
673.91
697.73
727.16
730.94
714.84
757.60
637.93
1002.09
542.46
834.74
1142.58
1103.50
914.64
913.41
578.67
655.73
575.54
490.47
691.23
519.88
655.49
323.63
1776.03
374.59
475.59
461.59
448.19
479.92
552.56
417.30
590.98
402.81
571.22
661.12
592.33
1062.13
638.82
627.59
620.99
609.21
452.64
493.95
565.86
610.11
562.48
857.34
770.52
713.78
719.40
866.81
646.04
637.91
538.63
648.07
439.29
577.91
613.89
486.72
682.59
550.73
1807.34
438.76
408.15
463.91
452.19
574.40
611.12
523.33
640.80
581.51
568.90
667.49
477.01
859.27
861.36
1482.73
1230.26
1319.97
899.78
1015.06
753.02
573.78
573.50
578.68
601.95
1051.71
561.00
365.97
341.88
280.01
539.60
405.14
403.97
387.02
514.16
656.02
644.46
657.86
862.92
1215.24
1033.34
1268.63
825.66
927.48
608.99
746.02
462.88
897.17
488.34
904.22
1024.72
1202.04
930.24
989.54
622.63
725.12
673.61
691.61
837.01
550.27
750.93
360.44
574.44
402.17
376.76
666.09
636.97
681.49
683.32
546.00
630.04
707.64
700.21
840.77
804.72
870.57
694.28
606.27
467.23
432.20
273.30
654.21
766.85
642.40
522.95
562.16
607.75
568.39
544.03
886.08
718.78
799.02
642.25
595.54
384.30
332.12
294.46
275.04
310.82
556.18
1619.26
406.55
671.47
566.54
627.35
649.16
658.02
703.53
651.37
805.91
716.78
779.36
529.39
1172.59
803.40
1069.91
652.88
924.91
676.83
786.09
534.03
506.36
554.22
606.34
516.67
1546.06
757.76
450.37
342.91
448.35
449.56
595.59
709.15
681.26
398.43
487.32
516.49
565.34
690.07
819.43
685.46
966.77
784.80
754.77
610.00
832.99
872.55
757.21
724.69
610.61
856.50
919.42
825.47
879.18
493.12
702.44
541.22
528.58
659.47
602.64
698.19
447.67
399.75
381.07
367.28
400.98
643.90
439.31
590.11
562.44
579.38
798.16
797.24
705.64
743.02
732.75
1557.86
798.31
645.11
851.47
991.89
1076.46
770.60
971.35
727.66
1060.79
874.86
808.08
1564.87
802.11
714.08
490.81
681.90
573.84
543.99
389.95
796.07
513.13
518.19
475.46
505.34
782.79
587.52
582.40
656.78
810.85
794.20
879.53
762.21
886.33
739.63
900.36
615.23
802.81
741.84
846.79
656.58
861.17
1002.78
1030.91
759.65
472.07
765.26
500.58
605.66
569.46
1240.24
454.00
330.95
443.65
452.27
650.34
577.32
551.52
410.52
527.15
518.69
585.78
558.71
990.27
808.14
882.76
773.15
954.73
624.63
828.25
844.75
672.96
720.78
808.15
751.93
945.44
1010.90
982.39
623.32
656.33
629.01
656.34
784.90
716.75
714.66
414.14
288.66
254.34
756.63
280.98
301.05
646.60
692.77
721.35
773.93
806.48
925.95
1335.73
1120.83
1266.94
2308.21
1084.24
720.72
726.98
795.63
762.10
548.98
768.54
584.99
899.61
758.08
741.81
2223.14
904.83
749.61
662.03
883.93
580.62
577.36
425.10
422.83
348.10
365.07
484.60
825.88
987.46
784.11
647.62
743.20
854.94
951.53
1099.14
837.07
885.39
805.85
913.00
663.26
803.66
576.60
925.54
851.12
923.54
868.51
1144.55
750.11
571.35
706.90
652.21
658.57
630.68
1907.49
571.92
442.97
497.50
590.55
579.31
461.47
715.05
362.42
679.17
655.52
868.68
690.80
1147.87
796.50
947.31
725.32
900.71
713.79
782.04
438.32
815.56
642.31
752.04
563.92
843.14
903.39
1020.25
708.60
694.98
668.02
637.31
794.57
708.81
786.88
505.10
211.60
509.61
1161.64
571.01
379.78
689.27
774.50
666.10
664.16
798.97
800.78
977.62
771.46
869.35
2079.90
983.42
821.23
598.88
527.39
723.87
804.16
766.64
735.81
944.22
877.34
888.01
706.51
1057.35
852.49
717.61
871.30
684.99
532.56
398.15
489.51
375.97
371.94
640.63
838.77
568.94
727.66
719.55
678.66
825.47
944.16
844.50
774.50
918.64
974.86
974.07
760.26
817.05
1142.30
1045.41
671.53
977.17
900.07
871.40
834.00
633.53
699.54
713.24
791.00
666.51
1798.39
666.49
494.09
515.55
553.14
498.76
395.06
645.92
526.61
586.08
803.32
714.87
824.85
1176.26
850.65
1101.27
888.82
1073.02
742.89
819.73
725.99
858.28
653.50
904.05
842.29
1462.95
1035.02
1124.17
685.99
673.96
718.21
867.78
674.21
804.25
884.55
559.08
316.99
1485.01
522.69
413.18
318.55
711.44
612.30
833.66
726.07
909.46
757.28
670.31
719.57
700.87
835.24
745.55
523.06
663.46
530.50
688.58
859.58
714.92
828.14
1040.29
710.80
702.05
1970.64
747.26
609.15
704.07
862.90
671.81
491.42
480.95
326.81
436.86
413.14
644.00
568.97
1094.31
701.83
689.06
720.66
742.53
957.26
951.95
823.46
834.23
804.60
789.65
812.27
774.38
636.40
789.95
587.59
866.15
906.43
1211.71
847.16
696.38
821.80
709.28
759.66
702.20
1775.17
682.82
438.99
283.38
292.12
610.13
640.32
645.63
602.33
747.08
700.38
1044.64
1143.78
1428.10
1055.18
649.81
836.88
672.76
539.68
714.59
493.00
872.07
581.55
583.48
663.15
715.26
750.72
969.09
765.44
755.44
717.63
729.00
926.22
606.03
674.41
868.69
719.65
864.49
937.54
482.17
612.31
574.58
798.57
675.18
644.46
715.59
679.75
737.56
744.64
780.01
2078.79
917.49
673.27
860.65
778.30
1022.21
697.10
854.23
900.47
994.70
919.49
828.17
604.45
971.60
683.75
725.76
775.49
700.27
829.40
628.02
659.60
568.67
589.65
744.93
618.29
617.88
1049.04
720.19
697.65
744.52
736.88
941.32
873.80
1072.36
908.00
977.88
744.90
985.21
1021.49
1003.00
638.53
805.84
867.82
1138.40
942.00
879.69
751.64
708.75
805.02
775.91
1392.45
685.74
395.23
484.18
286.89
500.23
646.92
607.79
591.59
721.51
776.75
695.83
509.43
902.85
883.41
913.75
886.02
970.54
687.17
879.88
632.90
920.49
708.25
809.94
791.88
1868.67
907.47
894.32
607.14
801.68
777.53
706.97
688.37
931.76
662.39
596.11
602.57
515.88
653.82
653.35
659.69
394.89
428.18
587.44
668.41
535.39
839.13
962.07
838.25
1055.38
929.05
1165.16
864.92
1072.98
584.96
786.90
720.37
858.34
796.91
803.69
926.06
757.70
699.16
823.41
773.52
755.27
696.98
691.27
596.62
534.15
654.98
594.85
519.28
811.74
747.29
264.34
638.77
710.16
627.71
789.90
750.76
1066.09
912.43
970.42
683.96
401.24
580.73
602.70
1074.24
878.02
757.52
844.39
865.51
995.78
695.53
639.21
768.25
749.68
863.66
644.34
706.17
762.65
388.73
533.26
811.42
753.74
588.45
962.26
820.22
775.66
885.57
1011.08
787.91
1056.65
828.93
949.18
793.12
969.55
812.21
717.51
527.70
964.29
754.61
945.06
764.61
787.49
1336.29
969.32
621.15
680.27
801.74
703.88
637.36
706.89
774.24
399.56
734.12
708.69
2078.12
545.33
503.93
786.34
490.78
776.86
733.07
627.87
787.85
885.66
838.11
857.06
928.18
1334.78
801.29
765.91
1212.39
1199.60
690.25
1104.82
735.53
1160.66
1204.07
906.74
648.53
618.14
708.31
736.10
746.86
745.91
695.81
477.58
544.29
529.61
382.00
522.99
405.17
1538.89
809.07
737.67
683.64
848.60
741.84
894.68
930.22
946.13
849.10
896.12
648.35
945.82
679.92
849.14
713.64
943.21
876.58
1029.77
977.27
912.04
858.45
949.17
838.78
778.89
1370.84
645.47
498.34
345.62
336.61
651.76
464.07
540.92
433.27
656.30
692.62
797.04
692.07
1037.26
809.63
1020.38
771.28
834.67
572.06
683.82
662.61
914.69
732.43
672.37
542.32
1183.15
705.27
857.07
687.09
674.12
779.59
901.66
868.26
870.75
845.66
444.19
345.98
351.88
743.23
449.54
434.92
679.55
656.39
700.01
725.47
873.53
843.23
922.98
791.01
873.03
1704.38
967.30
857.44
1054.07
743.53
843.53
923.33
856.19
759.26
1169.27
881.83
753.60
2048.50
752.26
762.36
827.27
764.37
805.15
655.65
605.28
1088.68
541.61
570.79
456.72
700.85
586.34
637.39
667.56
704.61
657.19
672.89
779.47
888.26
823.00
770.43
595.37
547.70
561.56
653.55
1017.36
815.45
762.64
708.67
898.34
871.67
668.69
739.30
827.30
821.89
903.40
1779.92
800.80
615.60
642.69
715.87
727.29
593.53
669.08
691.76
581.18
606.29
652.51
681.71
1020.68
779.52
761.60
680.48
970.98
813.83
724.62
723.51
888.03
1105.35
1019.50
932.92
1534.18
863.22
1018.76
720.62
826.21
782.61
809.64
791.83
642.47
761.00
246.30
548.19
233.10
458.55
426.64
739.08
453.04
417.89
653.25
637.84
735.56
749.01
902.96
712.73
919.93
1878.24
944.33
545.96
800.14
476.66
832.13
928.67
843.50
858.62
837.53
719.67
838.26
638.82
1141.40
845.65
728.74
790.54
849.25
582.19
395.76
413.77
323.83
554.56
637.37
679.36
627.36
1027.36
742.48
725.78
821.47
801.94
1180.85
1036.86
1229.09
1191.80
887.46
374.99
1698.30
680.28
439.73
557.70
734.19
838.05
991.63
904.29
744.20
855.38
888.42
755.23
822.15
780.98
802.49
455.53
581.74
901.27
602.46
526.14
720.37
495.08
647.43
605.86
640.86
3310.23
985.58
1036.08
1207.53
1024.53
1018.30
986.95
914.07
700.23
824.75
592.94
718.63
996.63
996.28
1051.25
1062.62
778.88
811.26
711.90
841.84
870.44
808.20
756.09
479.44
875.72
574.23
537.81
494.98
572.79
606.66
543.28
645.78
837.63
713.27
700.15
787.85
699.10
1073.96
825.87
995.90
885.89
970.82
602.50
586.43
674.64
503.90
538.58
876.96
970.30
1335.35
782.97
845.09
1005.12
852.81
933.54
987.21
655.38
487.84
341.84
504.00
364.23
948.95
896.76
963.40
705.77
762.53
902.81
792.64
892.87
947.28
989.58
862.11
967.80
809.59
1864.37
482.31
559.51
739.52
814.63
818.96
766.70
885.04
879.34
703.70
854.07
808.86
764.71
945.59
909.55
754.24
549.63
749.77
488.35
669.49
404.88
705.45
683.38
658.88
934.60
822.18
866.98
942.73
934.30
915.70
982.76
1042.25
841.86
910.74
900.41
703.52
444.55
763.91
1308.92
564.63
950.56
660.11
751.95
733.73
811.22
816.53
990.32
919.53
907.33
528.10
380.98
574.57
591.65
578.32
518.68
920.83
516.71
988.47
833.83
978.00
791.51
922.27
820.08
944.78
1054.81
958.78
760.26
696.80
771.50
639.84
1036.91
772.59
638.95
1090.21
969.37
937.56
998.07
1038.51
898.00
986.54
998.67
894.66
716.42
443.58
502.10
815.59
429.30
597.83
648.83
597.95
802.05
738.60
838.54
908.88
869.25
985.29
1016.18
1091.29
1033.05
847.57
922.02
928.95
783.14
908.62
635.95
808.01
969.01
1027.87
859.49
712.28
932.71
868.15
1282.91
820.27
953.24
777.14
520.63
353.88
529.99
497.68
791.37
604.05
652.05
802.10
3968.24
949.38
937.40
1184.22
1000.01
866.17
855.66
886.71
737.85
676.10
648.41
795.91
1993.81
698.14
1007.90
682.28
1042.44
952.21
897.59
752.06
880.12
1026.88
1046.02
755.50
2596.75
563.15
596.99
469.26
509.01
560.21
682.03
514.89
639.25
696.95
834.62
713.09
930.56
1122.79
991.41
942.49
883.44
1006.87
673.61
792.55
402.23
1124.57
659.88
901.10
934.74
1264.20
1045.43
1096.21
710.06
1005.02
965.33
819.16
962.33
878.68
972.59
421.81
625.70
728.09
694.59
553.45
1086.99
741.86
848.65
877.35
750.95
825.31
826.27
796.10
849.34
828.09
1006.41
804.88
1210.49
1164.79
619.75
807.59
770.38
901.68
1037.81
1255.23
943.34
2475.16
996.01
1086.68
960.64
1075.54
1142.38
995.87
453.97
721.83
726.95
622.72
828.96
1027.40
801.63
953.96
982.81
1193.19
971.82
1151.55
949.28
981.17
944.82
1020.48
1590.42
1037.59
927.89
1067.35
858.12
1121.77
608.38
922.05
905.37
1094.83
947.30
912.99
1294.37
854.83
919.00
1086.91
977.69
889.55
672.08
921.60
951.81
917.75
762.42
771.48
1868.73
923.13
902.51
1024.61
923.56
1124.82
980.25
1074.57
1002.30
1143.74
851.03
910.61
820.38
875.78
568.39
665.57
712.56
1140.59
1142.06
950.63
857.68
900.83
842.29
926.18
1322.73
887.92
708.07
710.76
975.85
954.74
874.97
872.28
586.40
850.25
760.07
762.39
3472.86
1016.25
1039.73
1053.91
1045.68
1151.95
1235.98
1171.06
902.41
1108.68
1023.56
1078.36
1090.77
848.28
746.38
1068.53
931.35
836.03
1071.94
816.97
1022.21
985.69
915.52
1587.37
596.10
808.62
879.98
982.81
586.34
877.15
757.88
776.16
779.15
753.82
841.02
2201.07
1214.60
1220.14
1058.96
1029.22
1047.88
1061.85
1038.85
905.98
676.28
1019.18
1558.52
1041.95
1239.11
1066.97
924.44
1088.93
1104.69
1134.82
984.09
978.55
1050.76
769.70
783.97
708.88
469.49
564.15
415.78
667.32
560.52
859.92
822.33
998.08
876.85
1000.09
1194.30
1189.58
1006.51
1107.08
930.18
1118.03
1017.28
930.52
1313.80
941.19
619.03
2328.50
944.19
964.34
704.31
825.69
775.76
716.95
867.55
909.00
822.58
767.64
502.33
991.53
1221.48
690.07
600.18
470.30
778.52
689.40
802.13
943.23
671.97
993.36
875.03
1136.58
1378.80
1072.17
489.80
618.69
936.86
1028.48
769.14
1078.51
798.38
1237.66
814.68
918.53
874.55
884.81
779.75
733.60
1065.79
1014.52
587.00
848.19
613.18
492.20
787.11
592.18
1103.22
723.48
766.89
753.93
806.89
955.88
868.93
1108.61
1121.25
1238.21
911.04
1041.81
1149.63
1127.06
1122.34
1093.60
544.25
413.57
578.95
677.47
816.33
687.53
842.70
708.95
976.02
902.67
936.80
508.34
464.55
681.40
1102.30
766.07
583.83
793.74
565.77
876.40
2019.91
1206.50
984.89
1173.19
1049.81
945.28
735.70
786.08
904.72
934.66
778.03
881.12
1992.84
527.70
675.04
1026.12
746.26
679.91
746.31
610.53
746.18
819.59
936.92
904.20
800.54
689.20
760.76
302.14
454.05
395.63
621.85
475.39
980.49
884.09
781.17
680.95
768.83
936.08
832.13
723.75
906.57
680.94
640.59
630.96
427.26
491.04
685.07
671.74
720.34
998.34
3105.47
708.73
796.70
744.83
823.94
668.09
875.59
889.23
468.13
476.09
506.41
503.62
516.56
683.09
697.12
716.73
879.35
1008.52
983.97
1239.33
927.61
901.95
876.03
731.78
908.67
1456.85
728.66
1148.57
787.98
1025.78
641.49
731.40
772.25
693.00
714.53
717.70
976.69
1990.48
766.45
776.08
715.95
594.42
624.53
529.52
429.17
587.85
262.61
831.26
680.64
988.05
1014.90
827.62
793.24
1027.50
916.09
1099.53
875.75
1160.96
763.26
760.63
676.71
734.23
926.87
718.32
562.98
893.72
951.74
1205.08
758.30
841.54
926.57
799.15
921.75
803.52
1327.22
483.24
256.80
656.76
942.82
495.91
663.34
521.69
761.88
678.32
642.01
775.48
826.40
1050.02
955.95
1098.10
930.11
1218.61
929.86
1102.27
724.05
820.88
590.08
819.94
746.68
1160.29
720.35
537.69
769.86
663.17
843.73
832.73
928.30
795.50
472.91
497.77
291.75
1933.06
823.28
826.68
462.35
946.71
904.48
981.90
1017.12
1239.86
922.62
1104.24
887.52
1454.78
860.76
1016.44
732.77
1171.42
861.69
1114.74
894.76
844.01
797.02
956.06
783.39
706.21
774.41
782.80
766.33
704.08
810.61
347.06
466.02
509.04
444.16
415.07
419.98
718.83
676.04
755.04
696.19
871.89
945.64
1033.59
1050.53
1047.90
730.94
961.13
610.34
652.58
620.58
662.00
841.00
519.83
589.07
903.27
841.89
1044.45
752.56
845.65
724.31
678.05
3055.60
971.68
859.59
698.18
629.50
716.09
373.55
298.54
250.82
586.83
580.14
825.52
999.69
1347.38
1139.95
1171.21
668.40
735.99
890.05
917.44
964.77
1191.54
1158.35
1239.67
802.32
917.38
715.13
1161.23
819.21
741.55
905.98
821.22
795.82
808.36
905.45
748.15
738.61
546.74
576.99
254.32
494.41
182.53
643.39
497.68
602.60
625.55
632.69
1095.20
896.91
1364.52
1407.59
1282.45
1095.21
801.15
538.58
645.22
455.64
1199.83
1387.46
1727.70
1519.43
1589.02
695.19
548.80
1251.29
846.09
1275.71
726.56
961.82
378.52
455.34
287.30
431.00
1088.39
931.80
1669.97
1572.06
1764.11
1133.61
1119.94
826.77
590.43
719.96
640.33
2142.72
677.83
403.28
515.68
291.18
698.16
554.14
587.46
514.59
996.07
832.87
669.62
577.41
645.79
836.62
699.06
734.58
705.30
638.82
373.00
580.26
283.05
692.28
654.57
630.05
576.24
961.51
747.72
613.20
527.21
815.92
708.83
654.34
702.23
661.70
490.57
358.93
810.59
1741.15
850.89
714.17
1011.90
614.36
846.10
598.51
565.58
693.07
680.72
733.74
796.12
799.16
760.61
310.70
378.14
708.11
284.21
602.20
828.11
1160.08
1386.32
1207.04
1060.92
749.72
812.90
775.45
589.47
696.36
724.05
907.23
877.42
726.16
1103.16
545.75
528.78
614.70
1056.84
953.09
870.52
780.03
699.67
776.70
830.69
908.47
661.26
769.55
430.49
473.64
436.72
527.03
608.22
842.45
922.41
597.83
551.03
761.64
642.99
659.93
672.21
692.11
673.07
2984.49
838.29
618.98
841.69
461.14
701.87
311.55
563.43
692.21
840.21
604.93
770.08
422.32
1077.83
870.91
834.04
840.50
867.47
777.12
703.23
407.80
783.09
715.25
572.78
408.10
713.17
714.98
637.38
663.03
482.06
724.24
780.06
685.12
966.03
938.99
814.59
482.66
294.12
1682.21
365.95
382.50
471.90
486.73
976.94
832.62
695.63
632.78
631.13
887.92
747.36
907.15
849.43
351.02
415.38
456.44
823.37
462.71
865.64
827.20
404.70
769.93
730.18
752.55
579.21
888.53
798.44
813.01
800.37
851.83
1348.63
1314.82
1664.73
1397.72
1710.29
1113.09
763.83
857.26
568.24
930.09
821.52
1318.95
869.18
867.82
859.83
861.66
432.64
406.03
499.09
521.73
938.60
755.49
1061.11
577.90
747.39
637.32
903.57
879.36
1284.89
1230.09
1258.62
1568.38
1180.11
687.48
606.62
476.26
790.63
405.24
545.54
823.12
477.04
814.94
684.73
1762.33
533.30
920.48
735.75
823.01
735.55
623.70
532.18
460.46
426.34
409.48
321.34
397.08
638.82
740.03
595.25
540.53
877.99
853.02
918.61
669.99
827.11
970.47
899.25
579.23
612.87
782.22
1068.17
631.97
846.85
434.86
851.21
958.31
646.81
555.32
630.78
862.82
586.53
1986.05
574.96
533.31
436.17
733.93
690.80
552.45
896.89
832.24
828.02
603.08
940.70
702.54
845.13
695.99
706.90
704.05
852.76
793.20
457.06
545.12
498.29
590.19
656.28
432.66
617.96
636.57
753.81
785.66
685.37
803.81
658.10
692.29
776.32
682.31
685.51
488.63
521.67
2596.11
516.44
369.58
488.21
548.73
662.99
799.57
609.05
703.90
781.25
785.37
839.57
758.13
1324.99
511.95
669.86
455.30
860.52
786.25
1122.95
720.48
1001.53
770.12
1142.74
672.58
1646.13
1384.56
1343.17
878.21
757.87
866.44
403.48
452.88
253.25
499.93
270.56
476.63
1778.20
897.67
758.78
910.89
799.40
838.25
840.43
909.37
834.61
756.08
631.32
344.45
282.04
776.20
832.02
492.72
580.12
517.72
571.78
624.32
537.47
722.87
702.48
721.01
699.79
846.56
923.33
468.05
688.66
855.16
765.67
613.49
574.15
412.58
479.20
870.83
728.27
543.28
687.54
751.70
772.80
699.27
692.64
562.06
765.11
593.52
798.13
569.12
761.48
665.39
742.97
1835.57
1039.68
811.94
835.56
857.13
767.34
576.16
597.94
1070.35
748.37
833.85
343.79
2845.21
314.57
450.73
427.35
617.77
712.58
787.63
1163.03
802.93
939.79
774.52
761.28
595.49
932.93
710.54
873.86
798.99
588.59
372.48
642.96
787.98
667.67
807.91
925.91
609.43
613.47
863.69
892.47
722.75
846.08
794.00
333.77
623.94
393.85
306.15
703.53
441.35
800.51
2621.63
778.64
659.22
947.60
746.23
922.59
887.23
632.63
813.05
435.46
430.73
475.76
815.07
1054.77
671.57
712.55
668.45
698.17
902.36
781.52
535.75
612.17
602.76
690.02
714.21
562.40
537.44
401.75
457.32
469.76
511.56
635.65
697.04
561.60
545.03
774.79
593.41
659.28
2596.56
854.66
782.82
915.01
735.93
955.01
708.53
724.73
403.76
907.35
1004.40
884.06
839.63
882.25
774.67
535.45
746.18
464.25
808.82
633.20
677.97
578.52
474.32
472.84
310.33
917.11
875.51
996.28
642.89
482.86
731.20
555.30
760.34
555.11
916.96
788.48
766.31
977.86
1798.15
967.21
1018.36
962.15
699.33
634.79
538.43
760.44
787.96
810.28
521.32
520.69
2627.20
684.36
882.02
838.88
895.16
809.58
439.86
478.12
452.92
439.81
444.90
495.37
751.41
1066.37
751.90
463.02
705.56
743.74
831.82
964.71
962.32
1132.63
900.82
1003.42
736.19
1147.46
546.91
337.46
699.48
560.17
709.11
579.95
801.17
763.38
769.82
692.98
875.46
778.21
690.28
605.44
335.93
909.93
999.93
1317.21
1196.85
785.46
738.93
765.89
1243.31
969.37
935.58
675.30
723.54
1297.69
1462.55
1838.65
1372.50
1366.95
613.79
362.71
609.67
1709.16
896.22
579.04
762.05
519.21
708.61
779.73
682.22
677.81
577.37
705.41
491.05
543.70
554.03
515.47
202.80
478.80
465.83
617.18
668.28
700.37
640.03
892.92
724.71
1057.13
843.70
1160.20
652.54
829.50
723.51
773.90
451.96
655.11
509.24
860.30
818.91
961.03
642.82
846.67
734.69
714.97
764.80
594.70
789.64
525.16
302.60
401.32
531.26
465.36
548.52
483.85
607.32
579.99
736.79
590.90
701.59
656.04
607.88
799.72
763.58
770.32
519.14
624.44
2350.76
620.27
517.46
658.54
617.99
787.52
756.19
633.37
553.04
700.80
614.86
674.60
694.59
1187.53
661.98
536.39
491.95
619.35
296.24
387.26
390.86
495.75
732.57
706.52
739.54
748.99
927.49
1035.73
837.51
1022.45
930.14
859.69
658.33
1303.58
1248.93
1290.88
913.51
854.88
678.97
690.57
771.65
436.93
657.34
605.55
851.33
577.03
720.20
573.26
601.77
317.12
1556.35
269.80
363.05
615.68
545.46
752.21
870.89
1014.26
819.38
946.37
832.64
945.41
787.27
777.77
666.72
291.27
488.18
259.17
207.11
655.40
776.12
672.71
709.79
734.08
652.74
685.96
805.79
758.58
834.09
820.70
812.95
665.88
432.65
475.31
326.38
470.28
536.72
429.72
1557.02
789.64
627.23
1040.98
1017.09
1195.11
1030.43
895.56
733.26
833.28
589.41
797.34
1478.90
1160.46
975.50
1115.34
619.26
820.73
683.48
564.38
943.85
896.51
897.40
779.22
1611.33
685.64
597.55
557.00
577.07
497.64
286.77
650.17
557.35
329.80
775.83
574.18
668.75
759.20
842.60
911.04
843.04
888.73
961.90
802.87
502.72
837.69
451.56
820.95
555.29
698.10
548.07
774.43
795.87
499.56
648.32
636.13
738.22
805.51
873.89
1065.90
735.07
796.22
819.20
670.36
522.70
647.25
491.29
437.22
911.17
559.65
793.91
634.23
697.52
622.48
827.77
880.63
561.48
629.54
481.40
982.35
906.52
1012.27
793.16
1031.61
1174.42
876.36
757.68
1232.17
895.50
652.95
743.85
666.41
581.62
376.84
466.11
316.59
287.20
314.96
649.45
533.07
574.07
834.07
698.27
954.88
914.41
1126.45
985.98
953.19
1052.91
1023.62
719.89
544.95
591.59
836.06
648.11
890.02
559.32
1009.17
750.06
743.27
608.15
666.79
791.07
587.10
789.89
766.99
416.11
405.23
136.67
540.13
555.44
258.82
477.80
351.93
606.22
572.86
688.05
769.43
737.12
724.74
688.86
852.91
560.47
547.59
261.21
684.68
494.11
715.04
550.15
986.73
834.08
1020.43
683.32
585.69
687.33
668.94
832.95
756.99
720.87
529.59
411.60
581.69
1106.45
489.72
442.11
554.02
638.18
761.71
769.34
719.51
747.27
697.09
755.23
745.88
750.14
1028.22
641.01
900.02
713.38
820.33
582.62
632.00
451.27
704.78
982.92
1129.10
737.08
1438.83
693.79
656.80
910.49
677.61
923.25
463.39
484.75
274.78
387.76
207.30
612.16
508.35
443.51
803.59
714.08
1025.42
881.60
970.47
809.82
1044.35
958.53
1125.19
538.13
372.35
490.96
635.86
471.54
564.84
438.32
617.97
833.55
649.39
733.12
680.89
940.13
766.40
1875.30
644.85
589.01
550.96
454.68
690.18
617.53
702.05
584.44
562.43
708.91
650.67
767.40
1035.42
848.48
929.48
794.24
1058.17
898.94
699.05
393.50
795.20
944.33
669.20
574.85
1856.00
806.20
758.20
581.17
592.60
584.04
732.20
849.91
570.15
841.39
642.41
211.79
315.02
566.48
746.90
402.83
631.19
647.13
489.28
558.43
608.25
619.04
583.54
732.45
724.18
709.37
948.43
974.96
1157.98
869.88
1130.47
976.52
784.38
741.53
320.30
866.01
555.27
675.02
650.65
616.31
544.31
787.96
798.16
959.22
890.02
818.47
768.64
551.09
593.57
448.03
522.50
340.75
647.63
833.99
552.37
629.40
885.76
869.30
904.29
910.76
688.59
671.14
532.88
1630.44
786.42
899.60
831.53
622.33
821.35
757.09
971.16
662.97
821.31
786.19
735.99
891.35
1036.85
617.97
265.73
562.50
322.41
540.07
453.76
578.19
481.71
595.75
688.95
672.17
579.63
712.97
834.60
923.78
1027.96
1030.52
905.32
762.80
1022.65
729.78
927.55
611.06
982.22
882.93
963.45
930.79
797.56
752.61
804.27
634.55
687.77
908.82
636.87
740.65
265.47
910.65
421.07
533.20
672.12
562.23
690.21
664.37
735.22
763.89
882.01
932.12
895.31
930.58
959.51
759.65
448.08
551.18
872.79
782.81
874.57
1003.57
794.24
736.63
884.07
772.08
511.02
751.92
774.77
842.25
770.20
580.85
460.06
597.65
156.40
510.84
308.35
627.33
524.04
1418.41
698.02
660.94
832.86
873.85
901.13
825.39
689.73
756.65
834.56
762.46
740.20
812.42
1103.61
688.38
795.96
883.34
1350.12
1442.71
1600.23
1011.58
976.90
794.51
650.52
1017.29
1074.79
1112.14
658.69
555.80
280.80
452.05
468.81
819.11
481.45
902.66
669.88
763.50
891.79
982.24
1096.41
991.07
1002.71
1059.68
1092.42
708.86
824.79
621.58
594.14
2282.10
859.62
827.02
812.04
756.19
408.76
736.80
575.50
732.94
623.64
778.23
701.93
508.78
916.19
428.30
354.25
644.34
499.74
443.34
641.34
667.68
644.07
758.35
953.20
1291.85
1984.04
1845.64
1872.24
1078.88
742.13
676.76
396.99
370.47
597.90
498.82
603.94
753.50
782.18
732.72
848.66
942.10
843.73
968.87
658.30
775.50
461.00
292.72
517.28
331.74
625.97
1384.64
667.78
407.95
621.53
802.28
517.49
786.69
898.71
888.12
773.49
673.68
946.97
717.10
921.47
1020.10
1306.72
1412.60
1173.19
427.83
693.55
766.33
987.78
1149.78
1118.25
2592.03
639.23
749.11
937.20
1292.78
1408.23
931.99
752.89
766.38
433.44
510.40
536.77
1645.72
629.08
575.55
742.97
1189.25
1106.43
938.45
967.21
1000.13
918.87
795.67
1209.01
1902.80
702.13
752.31
659.32
417.91
556.11
769.26
539.32
778.56
903.44
696.33
512.84
837.05
951.15
435.89
621.13
572.90
428.79
468.81
592.37
777.51
587.47
724.53
848.02
795.68
1739.94
794.58
932.37
836.97
912.23
678.76
572.48
658.10
843.46
569.01
741.01
639.35
435.00
933.52
472.79
886.45
826.96
927.01
1011.18
888.38
979.16
861.63
1021.60
711.58
913.39
1075.40
371.61
453.47
738.12
518.52
678.28
960.24
595.24
709.99
1004.08
789.04
736.05
1867.13
1153.33
664.79
559.37
524.56
251.04
406.04
591.37
594.52
760.65
1059.27
929.68
778.45
1009.51
757.25
1123.48
801.58
801.71
805.50
809.76
544.55
387.48
525.02
535.03
754.30
945.08
950.53
961.11
792.34
508.25
887.51
852.54
703.53
925.60
844.64
617.18
533.40
1463.07
373.84
212.01
612.71
942.91
854.73
1152.30
799.21
501.01
613.14
631.42
833.46
686.25
840.75
890.09
706.70
914.01
369.51
408.55
450.74
188.03
772.79
678.39
664.20
587.78
1913.72
977.34
884.34
932.65
1000.36
939.66
657.32
539.13
916.39
759.62
585.85
871.82
703.54
1281.74
1047.52
1048.07
682.14
518.02
802.63
815.69
836.51
832.14
996.29
539.78
332.88
831.32
564.96
249.13
693.26
428.94
314.21
595.02
591.90
677.66
772.96
1083.48
807.55
809.40
1092.42
1099.62
955.66
979.27
857.99
1221.43
982.92
928.94
645.64
711.04
989.52
1089.58
831.92
596.31
861.75
862.45
816.80
747.95
870.65
645.11
220.86
346.74
727.33
279.81
1504.95
684.60
642.97
882.84
739.31
950.53
1110.16
1182.63
1255.52
1182.55
1137.65
1021.57
1279.49
656.46
495.18
316.94
524.66
507.93
432.98
744.71
669.43
454.82
743.09
608.82
1981.00
846.58
822.90
941.95
664.76
622.10
591.51
290.57
480.29
345.39
575.72
839.37
648.86
710.20
656.92
645.68
622.80
723.49
815.89
868.81
645.13
299.85
1049.84
1005.15
758.11
1294.79
520.46
566.73
788.33
920.71
739.36
636.03
986.81
905.44
697.42
865.88
762.18
355.93
589.17
754.55
224.51
671.22
671.39
720.83
525.15
705.47
727.26
1042.55
928.52
913.44
1179.98
499.88
1188.58
1164.81
832.60
628.56
456.23
474.74
359.20
490.93
706.48
880.63
1612.46
836.18
608.18
755.90
724.80
818.14
718.05
646.54
786.79
324.89
443.72
330.24
514.51
452.58
356.89
394.00
743.66
672.86
715.64
450.25
1247.32
2193.35
2573.36
2972.29
2557.78
2104.07
706.96
660.01
2379.61
2342.54
1070.42
412.14
273.93
703.31
658.50
426.97
718.46
619.62
957.55
683.22
852.81
884.89
569.03
813.64
769.30
753.95
673.22
891.44
603.88
446.14
492.38
782.07
673.91
790.91
850.38
751.26
805.10
939.38
713.76
352.14
904.87
640.83
1401.69
595.89
477.81
910.50
692.02
827.14
689.38
670.33
1013.50
1134.90
974.97
1025.16
895.25
1077.95
1327.15
1510.30
461.91
459.03
581.19
533.22
1021.86
1112.94
1075.87
639.16
1084.13
548.21
720.77
721.00
1009.74
1219.07
571.08
632.87
756.15
746.29
577.34
604.55
1355.80
746.47
1311.98
1129.00
463.27
640.98
791.13
651.76
923.00
616.34
1726.51
1815.40
1710.89
908.77
856.65
1357.32
1153.00
1118.23
601.26
589.00
1072.37
1441.43
666.77
676.36
827.95
870.46
926.08
1326.09
1180.95
1063.94
271.43
261.87
910.29
1064.78
750.09
746.97
935.63
862.03
720.90
808.68
715.09
765.59
837.07
588.43
515.46
908.81
924.65
565.65
1262.27
352.33
626.69
372.58
912.70
1032.13
1263.82
1273.06
1123.77
858.61
782.59
924.15
1758.02
921.17
829.37
1067.97
871.91
324.04
686.07
874.14
728.65
742.74
631.96
727.74
856.53
914.63
870.04
839.93
909.06
546.77
437.42
550.02
450.08
713.66
1017.17
716.86
546.62
1578.24
640.85
592.18
598.39
669.03
749.51
924.53
1149.18
1294.09
1187.47
1139.92
947.12
1489.86
627.07
270.32
719.43
684.04
627.06
636.32
627.85
798.75
839.37
932.70
847.10
698.52
685.30
544.83
721.86
510.72
570.62
649.19
597.90
738.88
875.74
787.26
627.05
487.79
1727.25
623.78
637.10
862.93
1018.73
553.81
741.90
227.26
329.25
221.18
578.80
773.37
826.50
1229.04
909.20
957.71
866.65
754.86
816.66
556.94
795.46
640.35
439.74
359.04
282.59
1348.56
386.04
539.39
785.36
1333.85
1858.12
1555.03
795.56
611.64
915.68
874.22
1130.48
1952.26
1010.90
536.96
545.60
991.29
832.08
648.77
816.91
1276.83
1376.15
1073.15
774.90
761.76
780.43
781.15
801.40
657.00
797.83
597.95
644.19
732.60
782.41
719.45
813.18
895.35
788.50
738.13
817.92
606.59
1008.64
731.29
727.28
816.63
847.71
948.73
551.40
564.66
1384.61
736.37
422.10
862.51
732.32
1041.46
1052.13
961.36
598.46
593.05
822.92
704.13
1710.69
755.57
871.45
437.57
572.53
337.67
352.31
378.51
361.13
522.80
658.44
704.91
589.23
1022.43
1303.54
1982.30
1896.49
1985.94
1617.01
1734.37
1426.34
1367.59
842.72
400.74
875.14
479.04
347.48
814.40
1056.66
973.00
702.97
558.23
734.90
767.21
609.84
762.84
1548.65
459.14
562.64
565.46
672.93
473.51
501.83
527.09
709.18
733.28
708.23
590.39
661.45
759.34
719.78
644.88
745.38
379.77
630.32
1062.24
1066.06
1276.40
1167.66
1203.49
1272.74
1231.32
681.26
605.49
678.91
929.40
837.71
661.60
851.96
454.66
309.84
174.94
422.78
794.33
768.02
1243.95
1429.85
1849.45
1850.45
1840.51
1142.85
1180.83
708.88
660.55
699.78
690.18
520.31
522.61
800.06
324.23
518.56
504.90
525.37
484.53
751.88
709.97
811.34
1786.88
782.83
904.90
844.74
853.66
803.57
316.03
531.80
330.40
465.70
406.37
445.54
439.66
1021.58
658.66
837.23
846.29
943.24
958.92
795.44
961.83
789.98
558.37
376.57
372.86
2714.34
436.02
637.46
916.37
914.18
1261.04
883.59
646.14
592.48
727.56
762.66
704.57
840.34
830.53
404.19
347.26
164.09
346.64
241.83
483.73
687.36
595.09
1008.61
920.35
968.13
929.80
835.26
766.85
820.81
760.63
904.91
990.05
433.02
592.00
502.25
493.61
693.42
349.91
1665.66
880.27
726.50
640.35
713.64
913.59
809.93
827.32
892.69
748.68
669.49
763.52
710.65
1123.18
1049.84
872.22
546.96
828.11
938.98
671.56
561.23
741.53
810.80
759.36
747.01
1913.55
951.43
1121.25
1177.79
818.06
662.72
420.09
306.76
411.85
663.19
596.78
629.54
565.05
781.34
804.83
810.11
797.41
773.74
585.25
738.95
923.94
887.76
1025.54
715.32
491.11
1837.33
666.44
672.19
527.04
847.96
983.97
712.14
968.64
944.52
733.42
391.08
615.59
444.45
466.61
358.68
637.78
444.38
479.62
756.07
643.26
698.11
718.58
656.45
665.94
705.02
684.80
509.67
466.97
556.63
611.62
706.55
944.87
803.33
961.46
1025.57
758.16
729.44
741.59
1291.74
692.18
719.77
963.52
984.78
943.04
799.37
808.83
511.15
448.41
521.63
478.94
919.08
1072.91
809.53
796.98
854.61
840.94
707.74
611.33
765.06
523.84
529.67
356.04
275.00
1525.82
445.23
812.44
573.04
751.06
749.34
600.26
697.97
531.18
857.84
730.63
809.91
886.17
800.99
940.75
963.44
1020.93
824.58
1139.71
930.05
905.74
1014.02
1077.62
669.23
828.18
1309.49
738.55
742.61
727.35
847.12
297.71
504.42
420.15
266.51
483.68
678.87
365.73
652.72
608.24
635.44
642.98
851.89
949.50
892.76
949.22
795.35
750.78
722.52
769.55
732.79
1602.45
339.66
579.00
587.19
1123.30
1635.55
1858.91
1386.63
856.57
730.73
890.87
809.85
1315.29
608.32
314.76
478.37
692.04
459.25
589.79
759.27
292.92
776.52
838.53
941.24
985.90
1064.29
1064.08
1248.44
1481.96
964.48
798.34
1011.82
814.66
883.25
684.25
789.83
1617.55
910.44
762.80
728.76
579.48
656.68
763.13
558.80
870.41
855.18
781.05
747.54
777.30
421.46
434.89
693.01
952.55
406.46
662.62
949.25
715.56
730.90
964.05
802.31
906.87
872.76
889.41
784.47
629.96
777.56
747.94
775.41
593.30
569.36
699.18
854.38
917.08
643.27
2116.12
708.38
735.72
661.15
784.64
733.29
381.57
333.70
461.77
351.07
598.42
670.37
698.22
918.11
849.90
777.57
704.94
670.12
635.42
775.60
839.29
845.71
821.08
950.21
894.18
372.95
662.32
716.13
544.32
486.67
594.50
730.82
695.98
726.88
1125.72
902.51
959.09
943.65
1785.22
720.37
803.07
763.52
455.95
292.75
802.75
377.87
510.64
709.58
994.84
1037.30
1361.43
1974.27
1988.13
1320.78
966.16
820.37
522.66
450.91
428.12
534.52
359.17
505.29
611.66
990.08
824.78
726.60
653.12
950.21
590.43
932.70
789.44
961.03
680.72
601.53
492.83
1498.68
265.74
546.41
598.40
639.82
628.61
757.48
898.48
671.09
1024.69
756.25
814.01
978.38
951.90
733.54
784.29
602.02
781.87
837.55
561.35
479.54
556.77
956.64
745.26
599.07
784.02
795.85
818.55
764.97
802.95
737.82
669.96
616.61
229.55
671.61
478.49
591.58
470.09
1629.02
687.00
737.53
907.56
1730.49
2155.01
1658.61
909.42
922.03
731.42
380.03
471.52
1476.80
435.50
822.86
883.84
820.56
1410.06
1431.97
1297.76
1006.25
1037.05
861.48
630.12
876.18
811.45
791.06
602.03
517.58
417.01
328.84
266.30
893.83
282.88
864.57
738.99
629.20
1017.48
970.89
898.98
1010.52
1005.30
769.06
495.15
839.93
613.25
499.83
1063.05
1018.14
1323.86
1323.93
1310.72
1255.08
1209.36
1118.94
752.95
885.21
861.18
988.48
703.97
1143.83
671.87
1005.82
820.93
825.69
613.07
559.75
789.66
806.88
910.45
893.04
1156.43
1896.72
1437.08
1674.08
1409.93
860.51
438.29
726.63
1025.82
748.05
563.88
701.33
1204.70
2251.57
2453.18
1662.52
1241.00
803.90
711.36
1192.36
882.24
1321.11
1176.04
617.41
1254.65
438.90
334.62
519.06
519.41
717.13
693.58
763.72
662.05
1024.04
1118.17
916.28
2231.85
860.10
773.77
509.95
908.25
357.64
525.01
1186.57
1031.59
857.26
932.17
882.13
2256.20
678.32
944.14
997.97
863.80
985.54
749.96
353.66
435.44
983.40
738.32
447.97
628.50
668.04
382.30
769.26
766.33
603.47
926.65
929.67
968.54
941.14
985.47
861.34
702.62
892.55
880.16
617.69
457.22
500.68
671.98
736.32
885.33
705.88
537.77
863.63
803.72
887.90
906.43
824.73
584.72
461.61
659.90
331.58
516.15
817.01
1060.04
818.60
1063.34
827.34
2306.13
909.40
1089.23
899.31
856.70
944.75
1143.65
788.78
992.41
663.07
587.98
812.07
1102.37
670.32
327.08
746.79
854.21
743.15
894.39
797.59
853.41
1191.50
1744.72
1170.73
1390.92
555.28
473.58
662.33
369.84
618.87
636.90
958.25
592.12
955.22
551.58
684.17
2923.95
666.78
796.20
847.08
689.87
804.73
676.60
392.00
465.26
627.93
805.20
865.83
879.97
1176.11
992.40
1006.94
946.71
1032.78
890.25
823.07
819.65
781.92
484.24
550.93
335.24
2907.29
357.03
772.95
501.85
874.13
514.71
733.82
789.05
802.95
923.44
621.99
801.34
928.26
932.09
677.24
403.31
415.41
491.68
727.78
904.50
785.34
940.36
675.47
610.88
696.26
781.99
989.65
748.43
791.63
519.72
338.99
432.44
540.39
464.37
311.66
457.57
708.18
758.89
2934.76
740.44
689.31
725.58
757.39
732.24
873.68
929.21
521.57
816.45
432.66
856.29
520.57
1331.75
624.31
784.49
1002.76
1138.53
885.15
648.84
788.12
685.01
856.66
790.94
712.39
1783.65
496.40
715.98
502.87
866.01
727.75
669.04
429.94
794.93
838.16
744.97
839.22
801.88
1083.70
862.91
972.14
968.34
920.08
863.16
1052.38
946.87
758.07
790.67
756.23
1062.91
1041.08
784.76
618.15
782.88
813.73
852.94
860.54
993.44
856.55
595.34
918.12
822.83
1301.46
632.83
817.43
965.26
994.20
874.28
959.75
783.33
884.38
940.84
832.56
724.03
2985.69
499.12
380.32
856.37
697.76
537.85
550.15
717.41
736.59
893.25
788.26
622.86
833.72
1363.68
686.08
785.51
831.39
733.08
420.26
556.27
773.54
593.25
567.70
867.58
755.24
990.16
830.03
821.18
726.62
830.33
733.29
718.61
745.09
751.66
616.65
557.09
706.54
381.96
1570.53
775.31
1146.59
1922.72
1673.00
1298.39
683.48
642.14
1307.73
1272.82
1102.66
1226.65
759.06
607.03
646.21
632.36
585.86
301.65
449.30
561.76
446.64
721.41
940.89
1010.82
1346.10
1211.17
978.09
869.77
806.40
908.56
509.00
391.71
386.32
668.22
692.98
790.03
2728.42
1165.61
1030.05
1179.70
862.71
1073.89
892.08
1006.90
969.37
910.50
795.05
552.58
1379.47
730.99
837.14
728.93
637.15
374.65
780.45
607.19
710.93
592.43
818.24
778.43
2999.06
864.78
951.63
603.43
660.61
959.22
477.04
806.74
657.83
784.12
975.37
828.89
909.50
1015.18
833.37
732.15
793.49
942.25
887.31
1014.84
629.69
511.29
579.12
303.03
383.22
1864.42
514.31
660.50
706.51
796.35
923.93
1041.53
829.61
708.56
750.31
834.20
413.43
824.62
763.75
1006.56
837.53
585.07
996.14
844.05
801.16
812.66
590.40
645.55
761.19
672.43
1873.25
637.15
805.19
240.82
366.51
576.61
463.76
421.10
735.85
717.76
630.61
678.65
670.60
734.45
779.32
795.26
691.86
820.10
767.40
990.23
653.99
528.67
511.00
750.64
500.52
2543.61
1102.63
1344.45
897.24
715.87
690.12
747.33
799.06
660.26
733.17
854.30
561.52
298.41
680.26
655.65
573.39
271.82
623.58
382.71
902.40
866.65
833.64
758.88
915.02
1021.14
2970.13
994.33
886.97
815.05
534.20
871.23
832.45
971.20
926.76
1056.63
1032.10
1094.45
2074.82
738.73
885.24
767.93
853.74
824.83
926.90
806.54
504.73
641.10
447.77
448.33
2754.66
637.51
831.85
833.56
714.06
867.56
891.27
747.40
835.29
786.52
731.98
726.99
682.59
856.01
396.51
804.37
1244.80
916.98
873.10
847.10
626.60
584.47
671.88
690.75
797.06
725.61
982.65
1038.07
925.57
574.33
462.09
555.87
853.40
1063.34
633.35
385.36
503.19
633.47
1020.28
718.94
675.59
916.40
975.63
1153.21
1135.57
1469.18
1331.62
1290.65
909.60
696.30
669.56
545.40
868.42
733.61
859.87
799.66
708.26
789.76
960.79
915.01
969.07
783.66
1205.19
410.14
173.62
822.22
679.39
478.51
888.31
591.46
717.77
555.34
718.65
1014.28
1138.11
1200.60
1007.53
998.46
919.56
579.80
678.01
536.48
241.33
631.67
528.32
827.79
2682.26
999.22
834.28
720.65
798.45
891.63
754.57
821.63
865.48
923.48
338.97
477.34
337.45
659.74
733.44
622.93
735.86
422.35
693.33
814.90
755.40
848.78
840.01
889.52
883.00
1013.98
835.12
776.76
686.04
661.09
837.53
541.11
1123.70
684.37
873.40
1006.10
759.66
681.82
885.54
804.34
777.84
876.40
859.51
442.20
191.19
900.33
678.32
783.79
1002.19
696.44
3152.18
854.74
751.59
664.09
714.83
857.42
698.26
971.56
899.42
829.20
806.12
647.34
446.56
905.10
746.40
787.93
620.86
1045.01
617.50
831.87
841.55
878.02
822.32
966.94
762.38
878.88
914.40
471.46
496.45
340.40
401.27
550.94
645.24
545.93
884.95
713.57
765.36
807.71
908.49
1011.45
870.89
1062.77
724.29
572.18
274.05
762.91
860.08
809.07
710.80
711.96
846.27
1536.04
1061.74
570.43
835.91
937.30
901.83
769.39
972.43
914.24
592.61
724.70
505.00
1976.22
513.31
838.60
482.64
557.20
838.79
765.23
602.44
847.89
791.43
668.02
932.71
861.21
923.82
835.24
660.34
795.81
754.59
901.34
701.76
683.18
842.51
744.83
751.35
873.29
1027.38
1193.72
808.59
923.31
795.13
608.09
375.63
299.54
919.69
624.42
831.25
522.53
588.71
1390.49
767.06
985.85
1160.86
1076.17
926.24
905.69
987.77
1030.37
699.50
1098.03
1139.02
1735.54
1647.99
1614.07
1241.14
1265.42
958.71
747.56
850.61
824.13
978.76
817.50
1236.92
1123.55
1311.13
1597.07
1690.90
1207.44
750.34
465.46
601.32
547.47
889.21
2854.45
795.53
936.54
1050.17
910.74
878.33
1104.41
754.85
868.39
851.43
805.96
772.21
1925.94
921.21
629.40
559.59
1047.52
1017.09
853.35
764.61
987.62
923.79
503.08
825.71
1810.55
522.75
374.57
488.69
792.01
675.20
509.51
497.96
592.34
611.07
606.04
695.73
638.69
880.15
712.19
648.06
572.78
544.54
496.81
483.42
790.99
704.84
446.09
698.02
603.34
758.13
1111.52
872.69
943.53
1070.03
801.35
745.86
914.12
985.23
497.42
532.17
764.15
748.52
1015.32
323.77
590.91
472.43
734.88
933.20
644.32
669.15
810.30
746.27
833.85
894.16
1049.27
903.15
912.62
753.11
855.96
1163.22
878.64
617.64
855.90
749.47
793.90
695.36
766.56
1177.58
704.99
743.66
776.22
525.54
423.49
348.40
570.04
565.21
502.01
493.48
447.93
681.29
771.07
799.97
897.27
913.65
901.97
691.16
749.46
921.35
644.67
815.12
1035.96
644.32
1816.01
837.87
836.68
626.25
950.80
713.04
742.70
691.36
834.30
826.92
819.93
848.01
798.58
735.27
283.83
665.27
239.72
444.00
630.29
456.50
591.18
602.52
589.05
535.29
576.30
843.29
863.63
770.70
826.29
702.33
597.70
544.36
419.18
371.45
813.23
794.17
424.66
707.26
2730.81
933.85
839.63
1043.95
979.26
856.26
776.57
700.75
355.96
203.35
675.30
539.11
560.14
564.62
357.74
482.36
577.85
604.25
742.25
849.07
984.78
980.59
1115.43
1021.99
709.33
560.71
483.12
445.73
663.68
819.37
629.70
689.97
1209.69
973.69
929.62
619.79
814.30
1320.83
835.61
814.92
798.93
713.95
457.54
424.99
376.05
338.68
748.61
1262.33
575.73
1101.60
699.42
864.26
916.30
1092.25
1304.40
1168.69
1107.81
806.33
783.19
476.32
640.15
1840.08
1123.88
680.19
763.35
722.02
938.75
719.42
578.23
744.80
823.13
909.58
783.32
1040.21
765.26
726.34
271.20
495.28
675.70
394.50
507.89
747.71
875.03
912.63
846.35
729.24
2004.03
720.15
851.58
1059.29
1283.38
1222.18
1148.85
1079.62
452.59
423.32
647.01
1101.58
733.63
701.14
727.33
707.94
622.45
883.20
720.49
990.04
717.26
769.12
605.08
831.53
2787.38
1089.27
437.91
490.03
447.33
515.21
621.19
726.77
751.06
800.78
1036.38
951.53
987.75
960.90
1004.44
926.48
702.72
523.24
418.97
551.61
515.60
742.13
