348.74
427.37
306.88
391.66
389.45
490.45
676.44
803.42
724.34
646.49
591.99
655.39
593.00
1697.21
441.58
461.48
488.42
501.92
596.95
740.25
815.33
783.63
544.08
376.30
531.79
360.76
687.20
830.88
906.08
867.48
777.40
730.50
396.15
382.19
309.81
412.01
405.00
348.77
406.00
586.39
391.58
383.73
395.17
484.53
368.20
514.16
547.94
659.00
547.40
557.32
504.78
2103.32
501.94
472.89
490.60
509.93
530.94
517.20
459.40
503.44
503.93
497.88
567.55
645.10
1290.06
861.55
726.17
490.96
325.80
435.51
419.13
465.81
532.57
584.86
631.52
575.06
596.86
728.26
670.50
690.81
690.30
674.83
412.20
403.83
389.47
372.29
412.26
591.50
770.55
2083.45
741.21
609.46
411.56
397.29
393.20
575.54
887.58
684.17
353.45
454.28
628.17
692.51
1229.15
835.81
649.55
531.70
532.35
833.02
1003.00
1019.76
557.99
543.28
1004.64
555.53
1097.06
608.66
553.41
574.45
600.70
636.89
434.83
406.98
399.37
457.13
366.80
380.54
773.83
1167.65
931.58
466.82
319.84
330.56
514.65
536.07
742.30
910.66
812.85
620.00
718.92
1646.93
392.88
409.49
378.59
479.06
372.61
338.73
413.34
435.07
458.97
598.37
832.91
1060.02
1205.19
808.49
402.12
518.64
659.23
359.71
410.08
852.90
920.08
875.97
666.52
619.44
1640.84
728.72
668.45
921.54
935.63
627.15
452.38
398.27
372.41
547.70
707.68
490.01
344.40
446.39
684.17
501.05
341.05
390.60
454.02
366.85
488.14
468.67
495.17
496.61
536.46
1984.69
567.90
496.56
753.60
1315.78
1323.44
1226.84
1061.52
659.80
538.45
577.35
416.60
1770.25
595.00
623.38
532.15
503.68
347.15
425.60
549.20
453.37
375.64
373.24
371.47
391.83
597.53
514.14
454.84
404.89
476.08
559.00
568.15
717.86
722.46
717.09
542.33
403.35
395.77
544.13
504.53
581.14
654.01
508.51
387.24
479.80
468.70
432.33
590.89
691.81
652.16
1834.97
465.59
520.23
632.34
858.47
883.97
808.17
666.81
459.34
377.49
457.07
415.20
359.75
578.13
462.75
373.15
501.12
430.04
493.90
399.44
419.03
452.25
437.87
524.47
519.03
582.89
754.05
541.91
606.48
649.05
728.53
725.52
779.17
494.11
318.52
284.09
346.86
406.54
1802.98
710.26
628.03
558.04
488.86
441.89
587.80
613.65
638.05
557.20
512.15
404.28
495.15
1124.76
710.02
512.19
589.06
456.10
503.27
524.09
597.45
450.97
457.33
419.44
409.87
553.03
804.79
773.40
1038.79
1302.02
1323.57
924.20
399.66
981.18
697.01
356.86
509.55
532.10
632.79
451.67
395.42
533.04
588.66
575.62
658.17
515.58
499.26
508.21
433.60
381.04
3489.70
392.73
421.60
383.94
433.27
437.47
541.39
657.29
747.07
732.59
668.25
444.69
346.85
913.38
396.44
384.07
440.82
523.96
474.70
441.12
426.68
407.13
502.91
526.33
539.46
477.90
637.28
556.34
588.17
606.99
599.84
574.48
409.76
407.78
651.91
801.17
802.20
642.86
3326.90
602.53
497.68
481.17
531.51
440.86
504.13
394.38
395.77
438.42
435.23
448.10
503.41
1040.94
593.21
503.37
368.87
295.09
476.13
748.10
836.15
707.69
592.81
508.52
470.95
459.81
723.76
612.40
637.88
538.54
527.80
459.42
603.24
602.09
563.94
567.47
397.12
362.88
3367.72
444.71
451.68
512.76
620.13
570.76
612.23
616.87
543.37
467.73
537.93
527.47
547.57
1085.97
550.17
442.08
529.95
563.04
643.90
586.04
640.03
548.54
714.36
861.92
849.26
799.47
880.52
515.02
419.39
314.49
359.69
334.70
413.02
440.22
395.19
495.30
669.53
758.45
3367.72
451.05
404.65
475.52
651.65
537.99
432.32
561.92
688.66
843.49
1067.97
1292.01
1181.42
944.31
502.43
382.28
410.69
480.33
586.19
651.60
514.15
344.47
353.15
410.26
309.48
986.33
498.01
633.69
655.13
630.23
587.56
465.53
437.13
438.30
579.91
727.18
912.69
898.77
920.77
637.30
437.74
345.95
358.52
408.89
346.91
405.99
518.01
448.31
514.30
598.15
1779.37
481.18
615.87
620.33
656.13
624.82
606.17
403.86
538.23
475.31
425.04
500.99
513.26
698.52
440.47
353.19
377.47
420.13
432.87
436.63
600.88
648.69
629.38
496.54
522.29
545.49
564.05
508.43
503.28
386.94
453.03
466.67
721.74
648.38
614.50
490.87
465.25
429.07
3481.80
463.77
440.61
474.51
568.16
594.25
447.70
426.55
427.93
494.63
552.98
566.31
525.98
1155.24
561.13
579.61
561.11
575.22
542.14
461.04
631.69
747.77
552.26
486.76
471.43
468.21
571.12
416.78
399.61
415.12
415.88
460.29
598.72
599.46
610.38
466.40
558.46
413.77
3347.89
557.56
689.72
850.00
713.12
684.94
774.40
693.18
763.38
750.24
535.19
479.57
455.95
1109.53
516.28
619.63
704.86
586.94
439.15
523.56
468.87
354.72
374.24
394.48
394.66
442.94
617.80
477.75
541.23
485.17
549.31
434.56
401.82
409.91
514.31
470.86
431.73
377.41
3439.73
500.19
458.03
585.38
658.28
645.91
678.93
573.80
642.22
473.83
494.98
550.84
779.67
1326.48
1171.26
1012.94
944.45
547.25
301.70
527.45
620.02
588.12
413.65
309.52
461.13
1253.78
693.28
475.98
439.70
637.73
375.74
541.35
759.56
880.63
868.60
675.81
588.17
1199.80
634.60
552.50
527.74
479.94
587.22
616.03
547.52
468.68
477.87
546.13
479.39
446.29
1109.65
529.11
549.67
451.97
421.14
488.86
468.86
457.16
418.50
393.02
446.30
452.19
577.52
702.57
542.62
539.71
590.62
601.34
572.52
491.09
463.69
389.84
456.82
564.58
601.52
1366.53
903.58
846.19
872.26
875.91
542.78
365.35
364.62
456.01
560.51
539.18
682.77
563.73
677.58
508.75
612.53
640.98
662.00
660.09
522.69
427.71
444.95
275.11
388.08
319.38
374.30
552.21
468.48
444.60
457.68
496.05
595.81
549.71
791.09
696.17
418.71
359.98
310.74
1195.97
687.65
786.71
566.22
472.78
478.87
426.24
456.63
544.45
553.97
465.44
459.62
350.24
979.47
279.74
378.89
265.79
554.10
722.83
677.87
472.96
355.38
525.14
427.83
538.77
745.82
779.76
679.87
544.29
550.50
621.43
615.46
718.27
587.22
595.59
553.71
560.36
666.76
1118.93
425.79
368.07
491.05
303.78
464.11
493.14
499.40
483.99
495.12
439.69
583.10
695.19
1263.91
641.03
472.59
487.63
581.56
580.72
580.39
506.43
540.77
571.86
652.44
683.83
644.16
570.62
358.58
342.04
436.29
457.51
616.16
608.37
548.10
621.78
752.86
725.73
625.10
1229.07
507.14
516.11
432.66
405.28
451.56
399.50
432.93
339.59
377.00
332.04
427.23
365.20
1080.64
519.62
616.85
535.73
627.27
608.66
577.79
524.41
461.46
385.21
469.43
458.65
548.70
595.20
618.07
507.31
573.71
608.15
581.65
471.82
531.59
446.69
531.96
466.52
448.66
1197.58
545.23
511.08
501.96
553.57
576.07
495.40
526.17
482.16
517.85
508.73
442.85
548.80
1171.81
610.51
615.68
513.91
469.70
485.19
494.52
528.61
545.69
365.89
453.92
523.39
662.38
793.46
626.27
480.55
409.58
417.72
497.37
463.14
532.33
561.82
615.56
556.43
554.62
1198.22
515.69
463.85
541.28
573.90
578.64
559.16
624.75
463.38
557.43
613.08
560.35
410.19
1209.60
571.80
562.89
368.13
472.15
395.24
595.99
632.26
754.49
684.75
631.04
563.57
413.20
449.32
367.36
350.40
429.10
455.68
500.48
559.12
782.79
657.67
436.02
710.24
895.09
1175.74
701.87
828.89
892.53
737.67
754.30
543.41
488.44
456.43
527.26
500.87
547.49
400.87
1148.84
494.01
491.39
390.23
323.31
397.67
413.38
397.14
351.23
540.17
515.68
597.68
667.98
753.54
762.69
767.46
752.69
632.95
513.87
349.05
488.85
534.68
554.08
527.32
522.31
1186.41
476.55
349.25
453.75
480.97
436.09
419.19
468.21
318.40
407.70
552.60
504.66
409.41
1154.29
574.94
609.19
710.77
696.76
411.12
313.39
406.75
539.65
558.69
595.54
500.13
585.95
613.83
473.33
492.71
731.17
805.28
1032.79
955.83
604.52
299.64
379.26
342.69
600.41
1183.14
550.52
570.24
647.10
612.87
632.26
539.11
556.90
575.00
551.06
513.21
431.42
369.62
431.74
350.36
408.96
427.73
403.09
531.34
557.35
577.41
701.48
612.41
431.86
424.87
3139.13
547.24
499.25
505.91
438.22
493.73
498.20
438.89
489.34
535.71
596.59
577.88
595.27
1266.30
666.54
524.41
457.88
418.77
413.16
393.07
451.87
429.13
449.39
472.61
486.34
517.79
606.36
544.13
542.68
574.75
487.49
481.67
499.00
485.41
512.69
444.20
486.65
473.70
3037.95
568.94
657.36
667.88
710.51
602.93
613.20
491.96
471.36
581.68
743.88
671.15
525.95
1158.39
446.79
368.62
391.15
327.82
333.84
442.65
646.40
582.60
620.24
587.63
583.01
583.02
675.08
606.05
556.15
576.02
597.23
409.55
533.36
520.51
515.42
461.69
577.72
496.58
3135.54
589.73
496.99
531.26
500.08
494.93
524.75
475.78
546.55
513.27
599.07
601.05
572.59
1227.18
444.33
339.91
413.60
475.72
509.27
553.60
657.52
583.52
576.86
521.27
558.07
521.44
626.51
628.78
573.87
737.79
851.76
758.56
506.12
467.00
417.14
357.62
439.09
387.80
3327.40
388.47
505.07
422.55
492.55
517.00
414.79
367.62
365.17
444.75
546.13
479.47
480.01
1097.50
479.08
417.17
542.29
470.09
475.61
562.25
561.22
521.23
573.92
450.82
528.21
483.13
671.18
575.79
685.88
626.64
580.45
452.87
424.30
356.44
507.83
354.52
386.97
417.31
2979.02
625.28
627.14
581.26
589.07
569.64
656.12
712.99
784.54
693.68
769.07
875.31
985.85
1365.53
607.22
359.32
322.71
325.05
339.93
381.34
398.98
420.06
355.19
412.04
406.75
3272.54
490.19
511.14
570.94
716.43
783.68
663.58
642.28
508.52
538.09
655.80
644.15
514.42
1161.98
415.03
424.39
482.89
479.73
420.91
456.94
447.03
350.92
404.46
412.11
387.29
451.97
474.04
424.81
457.22
456.17
413.64
392.54
380.62
376.34
527.73
632.49
582.35
617.40
3052.87
561.89
375.47
436.50
452.59
337.09
435.89
460.70
469.75
533.81
550.05
556.96
542.77
1195.27
748.17
684.16
641.21
602.57
485.71
481.57
480.78
457.36
436.54
455.03
452.92
473.45
607.48
602.74
609.95
574.14
495.09
425.60
416.30
544.33
563.36
563.83
583.59
630.31
3033.53
598.86
606.11
527.13
486.84
511.03
467.26
481.74
522.97
532.50
588.05
501.20
402.67
1131.94
497.87
457.22
422.37
409.12
425.41
600.95
690.90
789.60
760.00
756.57
635.02
592.22
579.21
451.50
360.07
542.69
401.14
351.35
433.57
443.06
445.32
405.75
449.84
489.17
3143.32
657.71
686.24
739.98
749.73
754.52
534.25
345.44
512.35
384.86
561.43
551.10
582.93
1251.20
578.55
736.44
722.53
800.98
832.27
718.11
623.67
510.22
437.24
480.39
402.81
388.94
391.90
378.84
319.66
423.88
356.36
432.14
362.29
404.50
482.11
475.48
560.35
634.00
3205.20
727.55
656.44
711.95
758.66
814.25
935.19
914.87
786.97
540.20
533.28
660.37
651.14
592.79
491.56
399.45
417.82
389.40
409.74
453.05
515.53
530.59
439.18
452.65
466.43
517.13
634.80
525.03
476.30
434.56
568.03
642.18
663.52
627.33
647.75
645.11
617.89
683.49
2832.21
554.40
455.11
443.48
380.39
495.52
557.35
596.79
556.90
469.90
423.53
452.53
362.97
1070.93
455.37
455.17
469.44
450.01
457.92
544.34
580.09
640.87
603.50
693.01
541.93
489.04
577.35
467.76
547.44
638.24
787.14
742.54
541.47
520.61
367.74
439.24
447.68
408.90
3070.75
495.09
497.98
552.45
583.95
556.43
548.63
608.61
596.08
551.67
527.03
516.77
431.66
1303.43
440.59
567.37
521.56
629.59
539.17
549.93
379.79
413.21
438.10
613.17
567.26
514.25
528.62
459.78
432.58
463.32
526.75
528.11
382.91
382.63
473.20
545.52
453.54
476.54
2914.33
688.99
612.94
585.95
532.14
542.48
496.46
555.81
399.10
490.87
422.04
453.80
434.69
1174.47
486.73
570.10
533.11
564.41
623.61
782.45
661.50
526.80
367.23
394.99
393.77
567.50
793.85
762.44
694.96
732.35
624.00
537.53
457.04
535.65
607.00
660.27
590.79
375.24
3237.36
443.89
519.25
610.49
639.12
733.28
737.68
701.11
478.05
427.25
362.59
382.73
493.97
1171.09
625.29
615.48
480.32
474.32
412.61
557.85
559.09
595.40
480.20
434.98
412.73
487.70
582.20
510.53
480.51
467.61
513.47
537.32
501.40
481.23
455.26
432.62
414.52
480.89
2992.74
581.97
499.58
542.91
581.04
679.80
720.58
633.68
508.88
594.95
632.22
662.61
564.68
1166.15
431.34
479.00
517.55
767.60
832.48
563.65
559.53
462.59
413.37
578.45
518.26
455.41
503.34
436.43
424.61
337.30
365.05
424.39
390.15
389.91
423.42
404.02
294.71
421.05
2987.43
513.20
561.83
576.87
604.52
665.53
736.32
860.27
995.19
1101.44
1018.71
808.61
443.06
447.32
665.16
991.98
882.94
485.16
419.57
497.27
663.13
722.49
469.67
477.69
481.20
1241.12
587.53
553.87
370.58
561.07
366.04
463.93
530.30
532.51
521.78
653.37
525.85
638.35
637.25
603.23
529.13
554.15
543.63
566.92
533.88
493.44
467.92
387.27
347.70
451.28
2882.29
536.94
539.72
515.01
485.90
508.10
633.22
595.50
449.92
404.78
382.12
433.23
439.10
1234.01
554.61
498.62
436.59
476.05
507.03
562.69
599.50
664.38
450.42
569.95
548.92
558.61
706.76
652.47
568.13
617.67
691.65
632.04
480.41
509.98
533.11
541.71
376.12
428.58
2767.27
538.87
494.07
544.43
492.32
551.55
498.29
509.02
425.58
368.36
411.28
388.33
464.51
1225.51
598.56
669.12
656.21
713.17
712.99
671.54
592.05
574.57
504.97
462.11
351.54
444.26
624.10
563.07
510.50
466.37
359.08
396.57
442.27
522.79
444.20
483.00
421.64
447.50
2837.75
514.32
538.90
478.13
474.26
538.56
510.67
544.82
543.73
519.32
582.06
564.87
602.01
1248.59
609.11
619.63
540.32
594.26
631.46
586.56
521.74
497.92
488.86
526.03
409.66
512.58
586.22
515.27
494.64
559.74
564.27
490.92
446.29
455.14
396.63
417.71
372.73
398.84
2788.66
512.50
511.16
582.18
536.00
498.85
498.12
585.17
600.78
568.05
540.53
376.69
328.27
1116.99
405.25
492.87
549.82
513.10
619.95
678.51
604.90
560.87
454.12
539.46
612.73
703.26
764.06
527.60
485.68
514.87
353.60
403.31
448.65
544.92
557.92
710.64
646.73
416.32
2865.08
627.49
704.90
803.21
727.21
708.07
545.70
372.72
539.15
491.18
506.73
427.33
439.69
1263.04
667.09
802.06
667.01
605.40
493.29
471.21
420.85
427.48
377.58
395.96
551.71
580.18
644.27
622.23
454.03
391.30
357.24
444.98
415.64
397.58
476.53
515.27
597.52
529.77
2832.06
627.96
536.56
554.19
552.32
529.26
516.79
627.98
698.95
600.31
370.42
391.35
380.54
1240.72
609.04
689.69
664.00
595.23
502.99
533.47
448.50
455.12
438.71
462.83
445.33
538.07
666.16
686.48
546.99
509.85
595.39
577.97
583.32
523.40
560.95
574.55
682.57
647.51
2672.35
761.77
509.70
426.65
383.54
381.51
366.06
503.85
528.68
359.62
386.79
428.38
430.90
1242.37
520.32
593.17
490.24
567.54
550.18
640.24
642.80
541.10
454.42
576.88
588.71
697.46
799.43
756.45
620.82
437.90
377.82
477.59
440.02
480.96
523.54
501.98
566.14
416.47
2692.44
540.18
611.34
547.29
593.38
664.93
753.24
783.38
938.88
989.54
778.03
525.86
453.02
562.47
357.34
682.45
851.96
461.45
409.60
514.19
616.75
637.47
458.76
440.99
384.33
2797.18
523.77
568.63
549.72
599.18
575.83
558.95
564.74
669.61
567.98
563.10
392.44
461.94
902.05
504.49
623.83
652.44
560.07
522.48
545.39
517.88
514.53
452.50
472.02
486.85
513.38
608.07
356.35
479.06
471.02
619.78
798.44
884.74
744.77
585.57
451.10
388.73
450.19
2903.98
423.51
590.75
562.53
630.99
662.06
634.90
542.25
561.98
490.08
439.70
367.19
512.02
987.85
560.68
474.17
501.04
600.43
572.81
584.83
623.46
482.73
545.91
555.94
536.15
466.63
606.56
450.49
509.97
520.97
430.13
387.76
387.75
410.49
584.67
599.74
573.90
586.85
2761.52
611.29
589.26
553.86
612.20
557.09
498.19
614.33
647.86
677.04
693.37
668.66
655.71
1074.09
450.31
412.44
405.61
490.05
559.01
467.11
490.10
422.60
395.17
419.10
470.19
534.20
679.80
527.22
496.12
694.87
686.96
583.97
481.17
508.22
469.07
538.30
548.19
513.25
2604.50
630.52
591.57
547.93
581.87
633.44
649.11
675.88
723.82
802.38
788.74
672.25
550.60
894.11
813.13
997.23
601.52
382.08
481.92
557.48
613.30
479.67
443.76
504.79
501.11
562.39
749.59
685.01
589.11
486.23
495.52
438.20
469.37
513.76
466.95
413.26
493.29
477.34
2612.84
565.32
522.66
566.49
550.95
538.93
486.73
434.56
537.83
446.88
540.73
429.76
577.75
1068.40
674.87
632.53
767.76
730.81
686.23
526.18
404.02
425.38
421.04
557.71
615.72
656.33
674.56
630.57
649.66
681.07
678.95
610.17
464.99
388.28
448.96
423.78
416.00
457.18
2573.25
525.57
568.53
501.67
470.71
483.82
465.50
427.33
537.17
615.94
683.06
764.13
656.54
1187.05
655.94
499.14
386.41
358.89
459.73
360.75
404.73
475.27
539.52
487.52
550.40
470.09
567.89
521.34
558.87
491.34
495.15
494.39
506.66
536.96
563.12
550.95
521.12
564.48
2692.25
692.87
732.00
751.89
706.63
606.21
503.12
508.63
751.92
1108.11
1206.41
955.16
732.83
556.15
518.87
1080.84
1051.01
859.71
392.53
440.06
567.09
673.30
506.55
394.11
443.01
615.17
692.71
754.79
868.34
737.24
656.45
539.89
527.74
507.26
496.08
421.46
562.97
2528.02
568.30
464.04
519.13
641.74
798.43
805.06
651.31
428.33
426.06
374.40
490.73
502.91
1280.49
514.98
524.59
505.55
458.17
417.04
445.26
493.66
570.33
555.45
620.48
637.93
659.24
849.64
917.51
885.77
640.46
542.33
549.57
411.99
417.75
455.76
520.52
584.47
598.43
1917.81
483.05
714.76
565.44
378.12
467.51
519.96
474.83
460.67
473.79
457.58
633.18
692.00
791.39
665.75
704.34
539.46
493.58
480.54
598.28
631.15
685.29
616.14
556.20
483.78
396.45
498.06
417.60
382.05
454.93
498.25
721.19
656.83
560.11
421.07
433.13
383.45
583.50
2607.98
634.68
512.98
482.40
452.41
544.14
585.95
508.03
513.12
521.29
450.08
472.02
366.99
1247.71
570.79
696.65
757.96
797.98
725.37
646.93
741.74
634.92
569.02
635.45
414.35
523.32
585.29
476.89
576.46
559.69
464.52
400.90
438.32
415.43
459.18
491.24
424.51
486.08
2556.93
553.74
456.57
447.83
504.49
716.27
826.97
863.25
597.01
439.46
355.88
406.88
423.74
1267.87
628.15
637.37
682.41
583.66
475.04
455.90
416.41
445.36
551.16
602.16
813.04
784.70
765.48
535.30
429.98
398.78
510.58
523.26
498.53
447.64
420.67
472.08
435.95
427.42
2471.52
567.84
724.12
842.17
811.89
680.84
596.19
512.19
482.15
498.81
370.31
441.52
414.61
1176.96
545.10
695.14
729.26
747.90
657.55
454.58
387.92
407.95
425.99
431.60
435.11
403.48
454.24
444.61
553.11
535.85
478.63
543.53
494.91
422.73
505.73
463.47
549.08
568.72
2499.44
630.26
546.08
558.75
499.25
548.05
533.62
600.68
566.70
666.42
532.24
598.24
565.07
1250.76
631.24
639.90
785.89
794.50
593.57
492.09
412.16
413.16
376.25
573.07
552.75
629.12
612.76
438.29
452.28
364.86
487.39
584.16
516.70
624.56
612.13
670.19
596.71
589.69
2466.62
610.83
570.76
607.32
658.07
695.27
573.94
473.19
451.99
375.03
475.51
638.65
829.03
1440.22
1181.73
1259.68
1268.12
901.96
451.10
944.07
851.97
792.67
947.17
593.39
320.46
503.93
407.56
396.14
456.25
475.51
503.14
547.71
552.54
628.71
543.57
503.97
457.63
2525.34
698.48
738.70
692.17
701.83
580.54
546.79
532.86
475.03
511.78
638.76
543.59
701.42
1207.22
671.03
681.62
694.61
673.78
609.10
593.70
513.49
510.70
678.80
622.03
542.50
454.44
399.43
401.63
373.24
383.65
463.03
432.68
428.13
416.04
469.05
566.47
625.63
665.63
2536.52
605.41
645.02
609.73
523.42
503.66
441.01
490.77
454.38
472.49
435.10
482.67
476.79
1060.96
604.78
554.63
611.06
679.22
535.21
476.81
483.50
559.17
402.56
435.21
510.95
524.51
699.28
557.21
612.10
526.38
486.38
587.91
602.76
548.72
597.52
659.17
750.40
809.54
2553.34
617.64
445.10
727.32
934.96
551.05
392.05
496.61
577.28
536.13
523.13
603.02
646.07
1263.20
758.90
629.86
642.12
568.45
625.62
549.34
527.38
504.98
567.84
521.53
598.74
572.41
707.54
559.02
698.97
547.38
559.10
510.54
604.54
488.59
544.09
501.46
620.09
622.44
2446.17
538.08
372.58
399.49
411.42
443.61
473.85
559.28
506.36
571.84
647.62
719.48
577.96
1044.43
555.94
479.95
441.19
443.11
521.06
442.09
456.92
512.86
610.58
671.49
792.08
907.35
1280.80
998.12
675.14
417.43
451.54
386.89
316.66
354.35
435.35
415.97
485.22
490.98
1302.89
733.16
650.54
536.06
584.55
435.52
393.71
382.39
503.43
552.17
622.00
540.05
609.68
684.32
714.41
673.02
629.71
509.24
442.77
379.76
395.70
381.73
391.46
388.91
499.01
2189.82
617.66
727.90
847.31
658.64
480.26
543.61
594.84
532.55
538.09
447.29
364.46
449.10
1252.84
614.19
748.63
648.43
653.43
635.82
745.28
675.93
606.34
426.29
545.98
613.00
534.25
725.51
618.33
625.77
614.54
523.04
545.60
488.93
575.83
494.53
514.27
595.30
624.35
2360.04
694.97
536.86
497.06
407.06
463.50
419.86
396.06
480.33
711.03
360.64
582.64
622.95
1308.33
446.37
431.65
443.47
512.56
602.67
603.63
540.48
594.81
484.04
438.19
458.66
601.42
714.91
639.20
534.23
638.25
698.35
673.36
609.84
573.22
549.23
590.32
703.51
786.03
2225.01
624.91
358.12
480.20
425.97
438.39
377.41
427.14
437.19
418.28
550.34
744.33
631.78
1243.90
670.34
676.76
635.38
667.86
688.70
588.27
574.00
572.51
648.58
536.96
531.09
481.97
490.67
475.79
481.46
491.13
486.47
648.04
580.98
643.38
545.70
648.62
603.62
622.43
2318.95
713.62
791.75
818.50
727.81
601.26
608.10
530.43
346.82
403.00
522.83
443.28
358.85
1259.65
521.96
500.86
464.38
516.46
521.50
609.36
499.47
595.39
703.23
661.13
574.51
575.10
487.51
432.82
498.95
626.85
613.09
628.65
631.30
544.56
517.49
539.00
575.06
624.30
2277.45
681.79
484.65
431.82
365.06
393.48
450.11
500.44
577.83
664.57
704.17
577.84
463.33
1187.97
521.71
669.88
850.85
947.72
848.93
743.12
421.84
454.98
448.72
587.92
664.58
2329.45
617.31
468.99
377.55
399.24
484.09
485.87
480.58
419.31
316.02
391.32
364.14
432.78
1013.91
614.86
543.13
692.27
558.53
554.62
581.97
669.11
753.29
812.92
659.57
499.17
630.14
458.22
349.32
414.05
526.63
574.65
695.30
682.99
639.61
631.44
553.80
601.47
582.87
2242.89
570.48
448.81
453.52
566.33
626.50
698.72
634.68
620.07
499.49
488.55
420.65
378.35
984.53
565.64
590.89
629.96
513.02
648.57
618.19
678.94
493.78
502.17
622.66
653.28
697.13
848.52
767.55
751.95
610.74
451.94
383.10
407.25
483.17
454.56
540.96
655.98
610.15
2256.67
621.11
575.03
446.47
425.10
452.44
495.00
411.75
519.92
567.99
543.56
522.18
548.10
956.67
462.55
563.69
627.31
638.45
764.67
849.47
800.76
669.59
693.45
512.76
481.75
410.47
584.23
411.62
471.96
389.23
422.10
471.26
389.85
408.10
419.75
364.41
466.86
398.64
2266.82
713.76
779.68
674.97
737.01
647.35
749.38
748.00
838.59
596.84
444.95
350.07
489.84
1186.04
664.69
610.83
566.67
528.89
495.83
517.89
611.13
509.53
526.84
553.60
709.78
579.42
722.44
368.59
514.43
413.54
454.93
472.94
666.88
633.14
623.46
626.14
533.13
377.62
2215.37
525.93
491.52
488.94
554.66
548.38
650.75
657.10
811.91
816.41
738.05
559.01
406.36
964.19
443.80
588.14
704.32
754.47
683.88
434.98
444.28
401.82
407.31
361.90
450.39
467.17
448.46
284.82
504.29
599.52
657.08
529.01
508.90
553.45
717.38
753.46
695.07
624.23
2121.31
699.73
601.29
566.94
569.91
552.86
597.82
507.69
527.53
398.35
504.00
522.30
553.72
1111.62
590.56
508.34
582.24
540.47
470.69
456.94
574.58
497.11
530.92
514.12
552.50
499.29
611.16
518.83
565.68
568.80
569.27
641.30
623.57
555.65
569.90
494.24
598.22
567.83
2194.19
629.75
718.22
839.01
747.12
494.68
507.05
393.23
487.70
424.56
567.50
556.87
559.30
1096.50
528.04
427.61
347.70
354.34
327.61
417.91
434.56
491.93
562.87
441.14
400.93
331.94
522.99
455.97
460.69
388.61
363.35
397.68
606.16
560.49
463.68
484.47
612.07
749.23
2259.48
804.17
698.38
508.04
558.51
535.74
515.65
433.38
485.35
455.54
593.11
827.22
781.68
1283.05
529.21
381.05
416.15
444.37
500.84
611.28
613.19
516.55
646.59
698.73
627.50
431.41
581.11
366.94
373.58
397.58
475.61
434.03
478.52
491.42
432.71
407.50
389.66
433.12
2097.60
598.93
673.89
586.80
639.22
565.15
606.96
591.09
613.98
588.97
676.08
571.09
509.30
1089.94
662.38
719.86
690.92
570.67
579.72
588.42
502.00
491.64
526.42
657.12
686.88
556.15
546.87
349.77
454.32
646.12
607.08
523.10
438.66
430.84
477.34
387.13
444.38
471.78
2169.41
620.59
739.53
690.82
713.64
741.62
837.79
749.53
734.63
434.81
393.69
426.46
640.24
1127.56
631.39
462.17
458.71
410.58
414.73
512.48
434.29
351.79
463.33
368.12
423.02
478.78
650.53
532.37
553.25
547.08
598.94
579.02
495.66
393.06
416.10
424.71
486.35
478.00
2033.86
647.71
611.03
583.40
448.89
410.15
476.81
535.21
575.02
553.74
630.16
520.55
545.78
947.24
495.12
464.34
555.97
498.53
621.07
517.82
584.17
546.97
504.53
486.01
383.44
440.93
583.47
570.89
640.09
669.15
724.65
776.55
725.93
828.57
886.84
567.42
388.76
336.24
1950.14
406.55
358.91
385.91
463.63
575.47
654.76
683.35
461.59
344.61
432.55
466.17
398.25
1032.86
620.01
553.57
642.54
539.40
567.35
521.34
619.97
616.39
652.71
587.02
618.54
644.69
954.99
669.01
566.83
356.75
469.67
325.70
411.40
364.72
437.82
476.75
589.36
507.96
1763.75
618.24
623.73
516.38
565.96
552.45
439.65
458.66
471.32
553.72
531.10
490.80
509.45
738.60
755.54
928.71
940.52
657.47
407.12
396.71
348.79
349.06
440.95
458.83
562.51
1705.45
641.64
637.19
807.46
870.96
647.17
537.81
579.96
701.49
504.71
395.06
348.05
362.47
528.13
335.85
464.47
368.92
391.63
409.31
480.93
422.81
498.78
473.49
413.91
413.94
461.83
584.24
438.49
404.17
373.58
517.68
542.10
637.64
598.48
559.60
581.08
540.88
568.61
1895.31
568.49
580.54
491.01
574.71
608.99
554.45
546.30
477.82
459.54
448.92
389.89
550.60
1307.38
624.46
615.52
584.87
610.41
441.48
421.94
511.03
628.21
571.92
560.21
736.03
762.35
835.66
648.78
581.34
506.75
399.91
551.19
644.02
590.63
562.09
587.76
584.72
630.56
1917.95
547.41
268.59
452.45
304.01
458.09
580.63
646.17
558.79
406.12
546.47
652.33
632.77
1307.54
460.81
417.58
404.56
318.49
446.11
547.67
615.10
575.62
580.18
573.64
633.14
696.41
707.01
632.50
404.13
440.68
434.20
511.41
616.24
594.69
606.61
347.62
333.37
294.99
1589.59
351.84
366.99
421.84
519.18
582.73
600.80
504.76
467.19
448.29
374.20
581.76
573.93
1283.58
575.04
497.32
495.65
491.42
505.44
466.02
437.61
589.24
663.15
972.06
1146.14
2368.49
1284.49
785.87
396.96
1120.99
1238.50
672.49
366.67
371.18
524.07
802.63
826.92
1813.29
625.48
576.89
451.52
460.88
378.77
465.17
369.34
478.42
429.73
427.95
298.95
341.89
632.19
556.32
590.85
510.84
489.06
479.76
543.30
604.00
551.97
578.79
616.83
594.59
387.78
447.32
505.24
583.69
610.49
477.34
407.83
462.31
502.85
532.98
483.87
456.69
476.01
1744.96
544.16
568.26
543.44
508.86
459.74
514.26
522.85
494.52
448.52
627.46
694.47
773.74
1303.58
619.50
448.41
421.53
424.08
439.48
400.67
484.79
518.67
555.28
657.63
796.40
791.11
781.75
510.48
452.31
376.23
365.66
510.37
658.94
573.87
562.92
559.17
511.33
441.28
1834.05
430.44
433.42
478.48
451.47
423.75
502.15
396.44
403.82
379.35
363.48
376.41
508.85
1252.26
710.22
650.79
733.23
574.21
495.90
368.32
459.19
460.06
419.17
453.34
496.64
562.99
729.11
580.88
585.85
523.43
493.89
463.71
614.48
565.50
518.48
523.54
592.09
592.75
1781.41
809.90
738.74
608.81
646.95
598.90
658.65
516.69
431.05
415.87
646.04
705.72
701.23
1244.65
670.30
544.15
472.95
365.68
388.38
426.97
411.30
407.19
477.53
363.96
332.27
651.08
590.31
414.41
338.64
430.35
540.22
417.48
375.84
346.08
347.70
358.97
435.17
572.10
1848.85
634.59
678.42
789.90
851.79
898.17
857.56
676.27
540.75
379.43
367.11
449.64
486.63
1078.20
582.04
467.22
410.39
369.99
510.32
594.43
509.75
557.43
647.44
595.75
621.28
530.91
635.72
556.20
640.88
559.50
549.59
552.40
534.18
423.60
442.85
599.34
786.54
595.72
1708.31
411.68
336.80
392.12
452.90
459.16
396.60
542.60
513.45
473.85
577.97
839.54
797.45
1254.73
609.06
479.80
359.35
411.04
609.35
324.71
440.34
388.57
499.20
518.07
521.27
508.11
670.31
656.79
620.61
598.80
589.12
562.16
706.12
604.63
649.91
525.77
455.86
421.90
1624.63
597.37
583.77
480.53
430.79
498.02
611.05
580.95
646.49
573.86
528.57
428.04
509.61
1126.78
678.73
687.11
668.05
492.18
494.14
355.53
372.39
360.80
430.03
378.24
427.41
428.42
537.48
542.64
597.67
612.30
603.64
588.67
580.79
540.29
600.90
516.95
456.06
410.05
3280.02
567.60
558.26
453.13
555.99
554.25
660.80
532.13
361.20
367.87
332.61
366.40
463.84
1126.48
553.24
527.56
531.44
554.00
770.09
724.47
602.92
523.87
386.82
398.56
350.49
460.53
623.95
577.18
553.96
541.04
616.50
663.13
704.32
658.53
739.48
650.63
564.43
405.93
3579.46
444.43
408.09
513.47
569.31
631.13
729.51
719.03
773.85
853.77
958.93
515.74
589.53
759.91
406.42
472.94
532.42
483.49
630.07
638.61
579.71
552.53
583.91
551.90
444.09
321.86
577.53
418.35
399.12
399.22
431.50
553.93
610.24
606.26
544.42
402.93
438.28
425.89
3515.85
520.78
601.00
655.86
795.58
705.84
644.50
447.81
417.92
378.65
332.09
341.28
424.08
1156.93
678.86
559.48
386.28
286.92
343.94
439.53
599.19
606.03
583.28
570.40
475.88
469.29
594.51
491.47
589.59
576.24
571.53
541.16
534.33
521.51
559.01
513.55
592.16
544.08
3288.59
607.12
589.31
552.91
555.92
421.74
480.41
513.44
511.24
632.40
642.62
460.37
465.82
1113.18
663.14
598.51
489.25
438.45
364.83
422.82
523.50
484.22
484.28
389.80
387.97
392.13
733.52
653.02
753.15
716.14
542.66
439.81
542.41
535.50
679.70
654.62
516.77
376.54
3327.95
404.02
487.68
437.87
515.93
480.92
507.35
569.97
508.69
479.11
580.46
587.90
620.72
1250.52
722.24
505.14
480.58
453.50
518.29
485.43
487.62
427.02
730.30
908.17
897.63
571.00
432.29
661.18
645.38
347.95
475.83
481.60
471.21
497.22
696.94
781.86
877.84
981.01
3368.27
449.53
304.44
393.96
545.10
533.87
603.54
598.76
588.75
496.00
451.99
463.53
464.37
597.52
484.08
493.83
509.45
607.91
735.17
603.10
654.00
568.97
493.51
382.99
359.77
333.82
500.26
468.86
585.02
524.88
595.48
532.08
505.43
535.56
558.61
425.60
443.81
470.54
3319.50
516.77
460.24
552.09
524.17
624.79
637.11
591.19
573.37
585.65
634.26
538.72
479.16
1169.99
555.09
528.84
514.66
556.92
720.74
660.00
716.49
708.49
725.68
740.30
751.02
503.23
474.14
656.48
720.41
367.56
507.03
396.43
543.14
582.60
572.62
528.16
430.54
405.89
3311.08
594.91
526.51
372.72
381.08
321.03
360.31
351.32
382.37
409.05
421.88
507.79
523.24
1176.49
524.62
577.45
538.75
584.13
660.14
672.22
801.48
668.51
679.25
694.27
526.24
493.81
609.63
467.84
540.44
501.15
430.13
460.94
569.07
508.96
626.22
670.21
877.95
897.76
3285.39
413.45
653.67
728.26
378.33
474.57
726.55
687.55
639.45
584.60
580.30
629.30
640.06
1222.84
613.01
366.79
367.92
448.62
495.02
601.35
537.51
405.83
400.30
559.46
532.81
413.10
506.41
497.63
457.48
550.09
742.09
669.07
661.93
571.49
504.80
509.90
575.99
528.73
3198.36
578.48
645.27
610.58
547.18
479.58
390.52
346.01
439.57
461.94
317.90
409.13
386.73
1098.67
558.43
529.15
575.80
493.25
553.19
469.61
504.20
439.42
504.77
530.86
488.70
539.16
697.42
576.52
677.88
551.98
635.91
507.69
515.56
525.63
634.68
636.84
627.58
598.13
3281.26
491.48
355.65
461.05
587.54
642.42
684.20
609.90
675.98
573.50
521.72
468.65
552.21
1229.39
700.41
534.77
466.86
393.33
388.99
371.08
489.41
493.90
398.99
295.76
367.05
349.53
522.48
572.09
642.03
626.56
542.81
402.48
487.59
448.34
682.23
678.03
687.39
547.97
3180.86
506.78
529.67
459.27
513.37
489.16
474.96
343.67
348.87
288.58
412.14
384.46
474.12
1161.91
494.55
480.27
586.36
415.40
624.10
601.93
688.28
638.30
486.26
468.42
542.34
577.06
713.21
646.15
573.88
362.50
322.74
415.08
402.70
534.94
617.42
610.95
518.53
534.38
3186.62
699.73
806.48
725.96
767.56
634.74
534.51
369.97
364.04
359.66
414.71
537.58
644.35
1061.43
310.99
330.36
398.72
321.04
427.60
597.30
643.29
544.08
549.45
367.67
361.08
477.76
833.41
920.03
1096.76
1088.16
973.24
600.45
394.25
483.92
415.18
385.75
450.30
608.71
815.37
644.11
582.38
431.24
432.49
383.02
367.42
497.14
439.59
471.04
430.47
480.01
3172.63
576.34
401.49
423.51
534.55
599.80
561.81
511.52
552.51
503.88
605.43
693.73
723.81
1280.60
553.63
493.55
526.80
499.07
474.37
503.63
485.55
536.30
544.92
525.66
543.77
626.91
848.40
603.22
749.77
644.14
861.30
772.71
674.18
561.63
419.10
387.78
319.91
329.84
3406.49
729.04
872.64
703.41
320.59
392.49
363.71
428.94
402.48
499.97
404.81
400.87
564.14
1267.78
672.07
635.67
659.17
606.66
673.78
587.44
581.88
516.67
561.67
526.59
597.01
574.07
702.77
536.51
706.37
605.85
491.44
330.10
398.28
431.14
752.21
909.77
1096.99
966.96
1251.52
498.24
358.35
327.26
321.20
332.58
405.35
399.55
460.81
517.75
571.51
636.71
3138.82
752.51
784.23
654.55
547.39
361.20
367.14
448.37
528.13
513.48
457.37
344.37
430.62
1086.11
602.29
629.61
562.12
463.38
475.13
570.61
505.88
529.77
520.76
434.37
525.06
477.93
565.97
488.65
586.68
519.08
522.65
405.93
447.48
444.50
482.15
465.21
525.76
469.15
3212.49
568.88
544.38
535.14
532.82
503.47
470.95
488.20
398.96
544.90
600.26
650.37
693.95
1072.21
708.33
605.55
641.67
566.20
408.95
537.88
596.14
452.78
435.64
378.12
477.36
404.27
623.15
546.93
713.15
667.95
722.23
588.36
559.37
405.58
372.60
424.43
496.84
502.43
2963.05
534.83
508.47
456.62
532.67
458.08
635.72
570.32
512.52
427.12
494.59
523.90
592.91
1110.27
494.98
502.02
480.62
464.29
440.26
448.28
448.54
385.90
425.30
358.98
508.39
511.33
620.87
611.02
553.17
485.52
429.23
347.82
369.07
387.35
401.58
481.42
475.65
369.35
3128.18
617.90
637.29
640.65
741.43
819.20
906.22
943.98
966.73
770.67
464.50
999.59
1230.62
523.94
480.97
855.24
925.18
906.30
923.07
880.89
570.54
368.03
388.65
365.35
408.99
463.61
370.96
389.60
335.57
369.64
375.06
420.38
375.15
408.62
478.52
473.21
529.71
3141.57
559.32
547.19
531.25
582.73
613.39
546.82
610.61
612.64
610.43
586.52
676.47
689.32
1278.35
693.94
579.82
417.45
454.40
341.52
483.02
423.58
516.51
607.61
712.30
614.70
570.79
591.24
397.90
339.78
407.88
399.50
467.33
434.97
507.43
427.75
444.31
381.44
533.03
2997.82
972.60
937.16
876.48
642.88
548.49
486.02
428.21
428.53
517.97
572.45
650.27
491.46
602.79
354.57
408.92
593.74
801.90
792.99
815.77
631.46
413.56
368.59
376.74
386.59
445.47
399.57
525.74
429.70
561.97
471.43
495.89
429.58
562.25
571.61
561.49
612.81
607.14
3052.37
573.01
554.64
508.84
464.14
439.96
326.89
456.54
464.46
490.40
604.08
663.89
513.87
1239.77
394.62
372.90
486.40
480.55
469.87
553.71
571.66
570.32
550.65
570.62
549.26
714.55
911.68
922.02
910.72
688.01
477.46
455.27
341.18
368.42
364.39
718.78
788.54
789.93
901.06
578.46
816.88
513.71
353.48
397.65
493.46
460.93
449.09
410.82
412.62
440.46
430.22
710.43
612.70
451.64
494.65
570.88
504.09
508.83
419.90
420.58
402.39
446.04
503.62
697.80
844.76
780.58
784.88
651.87
670.59
865.09
735.92
520.79
342.81
464.83
406.91
538.24
2901.21
961.57
748.20
471.46
320.58
379.28
361.64
570.08
577.31
555.21
350.35
434.32
348.60
642.23
384.93
413.17
411.16
503.19
480.12
660.26
727.24
719.75
590.34
633.73
526.06
391.72
589.77
568.28
387.30
385.72
374.80
448.43
418.68
385.81
406.90
456.51
470.75
542.61
3048.80
524.38
549.18
693.94
558.95
585.55
529.72
590.95
510.07
491.26
431.46
497.40
568.59
1348.52
713.75
708.21
662.46
612.88
404.02
370.98
291.96
448.86
440.53
445.97
468.89
486.07
695.75
853.57
734.98
644.47
596.28
550.65
555.40
567.21
607.85
592.56
522.45
451.36
2872.09
416.72
423.61
406.96
412.73
529.54
497.93
476.70
434.09
361.46
374.18
557.01
482.31
1292.88
658.24
664.35
586.75
492.17
507.21
615.69
578.39
565.74
599.13
688.07
674.30
503.42
448.68
503.02
381.82
463.68
533.15
512.17
491.97
551.36
501.87
577.27
378.75
508.23
2874.67
742.10
657.94
557.84
387.74
498.18
454.34
353.45
508.09
541.15
480.54
584.56
519.36
1292.08
462.70
478.72
479.79
492.26
574.94
704.46
702.48
710.49
714.22
635.46
514.41
559.44
654.11
677.51
746.06
725.77
594.47
545.21
455.97
400.77
453.54
424.86
441.93
446.42
2984.15
439.77
429.24
556.37
754.19
858.27
844.43
859.88
658.60
471.58
375.67
434.37
308.45
1261.45
608.58
562.64
487.89
476.54
374.19
413.21
400.85
355.53
410.15
476.35
426.88
517.01
568.09
572.61
538.68
490.27
523.32
586.52
565.51
547.15
525.02
546.56
580.93
508.29
2770.81
647.57
612.53
675.66
721.87
482.25
413.62
444.17
541.91
662.88
728.00
811.35
647.25
1274.51
478.48
434.18
406.85
539.06
520.71
380.78
334.36
547.62
682.48
785.37
618.52
473.31
1109.38
708.42
427.90
429.89
448.26
504.43
515.39
588.85
580.58
716.59
721.48
715.55
1923.98
663.41
590.83
585.04
581.23
664.94
597.11
577.20
475.20
457.93
442.81
401.15
379.60
618.54
456.73
452.88
433.28
486.15
501.51
534.51
477.45
428.60
472.97
573.11
534.62
627.78
638.05
669.50
657.18
630.34
566.77
482.37
397.68
453.31
523.60
571.24
469.14
446.36
2871.51
472.82
453.05
521.65
570.71
733.35
531.53
526.69
500.12
562.78
519.15
390.50
380.83
1221.39
463.39
474.97
417.90
547.78
428.24
481.92
560.49
601.24
737.45
738.18
638.00
436.69
430.24
409.41
390.00
660.73
980.56
1083.07
867.66
627.08
594.62
464.66
372.26
465.80
959.99
560.14
511.00
499.76
420.36
364.07
370.16
415.52
361.64
414.00
451.06
564.27
492.19
600.61
595.30
555.61
504.55
444.90
443.42
447.92
508.43
625.44
483.97
651.40
549.89
2825.96
514.99
572.75
540.36
539.23
576.39
641.27
697.37
772.23
696.02
552.82
433.40
521.56
1003.35
415.33
384.22
587.36
570.95
550.72
462.39
524.35
572.45
677.40
625.74
534.89
487.00
509.40
486.74
601.72
529.74
627.33
571.53
684.02
563.87
695.00
701.54
600.02
523.37
2850.12
663.88
580.62
522.50
460.47
445.86
489.53
518.68
492.08
418.66
552.47
861.01
637.45
1012.19
893.56
794.34
609.08
607.73
551.93
519.73
552.22
570.15
659.83
500.54
555.36
489.23
635.30
552.59
538.70
529.90
475.26
500.87
471.37
402.93
428.16
425.17
476.02
504.51
2813.45
545.77
465.15
384.49
548.30
500.25
526.51
607.70
595.23
483.83
575.47
535.20
615.18
989.79
593.48
694.20
644.81
556.24
525.79
637.47
682.74
674.69
585.55
539.32
447.41
405.34
455.59
409.00
397.64
428.06
422.34
429.18
495.33
533.18
623.13
531.35
598.65
492.98
2847.69
395.05
504.45
448.27
557.95
488.29
476.35
571.11
615.50
638.02
660.89
647.63
429.28
870.50
478.23
650.62
828.91
682.32
686.77
641.00
836.42
1012.92
1204.96
1082.17
716.61
3150.73
466.47
426.37
487.78
395.68
482.91
686.32
726.85
641.59
498.53
448.51
379.36
567.92
978.09
852.70
567.21
410.83
391.00
423.31
567.65
478.12
549.49
468.60
517.68
423.28
2847.93
628.62
649.89
539.28
523.25
507.88
509.66
681.29
725.95
826.63
754.11
734.76
720.64
1013.33
490.16
453.37
425.30
423.19
478.64
418.98
507.75
521.47
470.70
557.76
501.31
502.75
515.19
415.93
464.09
589.57
727.97
615.20
485.77
463.16
477.48
505.75
667.78
690.85
2782.56
587.54
529.67
468.00
493.48
415.55
446.27
430.66
577.93
672.45
727.12
667.96
593.01
948.36
532.33
336.95
433.71
415.53
456.97
376.27
539.98
487.09
467.13
400.56
416.86
419.79
651.45
465.78
543.12
505.02
540.48
549.52
560.01
529.33
564.92
445.68
542.61
524.66
2817.27
353.55
460.57
562.19
766.76
642.59
700.54
551.50
592.19
526.38
464.89
709.73
863.62
1281.50
663.24
455.30
814.20
998.17
496.88
386.65
433.07
534.75
517.48
470.51
521.56
2760.41
627.21
595.09
518.61
624.95
507.99
511.34
586.46
536.26
562.88
495.67
513.44
523.28
1414.19
618.28
714.53
642.27
622.90
579.62
639.66
472.22
521.93
438.04
450.41
438.01
412.81
472.59
504.00
581.84
618.87
473.37
468.94
445.98
484.70
513.34
468.52
543.05
512.25
2670.49
524.45
439.51
577.23
534.52
582.44
578.98
600.96
556.53
554.90
500.20
523.67
395.97
1266.52
458.57
581.99
550.73
551.00
592.95
610.52
621.93
648.00
383.32
395.55
490.55
532.19
607.65
467.16
453.79
563.89
450.54
503.16
461.47
547.61
404.18
572.40
504.51
515.18
2755.13
596.19
502.53
530.44
546.95
589.41
473.81
492.26
534.25
572.58
456.43
520.79
490.30
1266.07
623.61
624.61
686.88
768.68
758.69
704.00
473.63
570.37
658.42
405.47
418.43
421.53
515.00
509.77
536.88
661.61
546.07
618.37
628.89
743.09
863.03
829.62
791.24
634.41
2622.54
661.43
816.01
767.83
795.78
537.76
452.66
452.93
624.39
719.53
604.62
494.95
456.14
1320.99
553.30
570.81
522.24
568.90
483.46
553.04
631.89
569.06
514.33
592.36
539.92
588.11
663.55
558.46
525.43
494.58
528.20
538.72
501.59
520.39
481.40
557.20
492.44
534.80
2572.98
690.18
644.32
672.02
710.49
625.18
472.26
567.60
456.89
508.42
505.53
787.14
863.96
1596.32
812.62
620.89
457.29
529.46
511.47
622.30
610.21
505.36
456.79
444.70
395.75
2585.21
453.21
480.02
769.31
529.97
377.16
510.27
555.53
569.98
591.03
541.96
443.30
565.14
1123.12
794.28
634.67
666.29
572.01
632.89
506.97
428.66
457.15
482.03
372.25
444.20
417.89
697.89
636.39
617.38
571.35
588.71
563.42
536.69
372.85
475.45
518.80
481.56
514.99
2552.30
500.33
500.57
562.83
615.90
588.12
626.05
531.83
572.40
594.72
619.32
572.40
553.08
1201.58
885.98
986.28
1034.06
710.14
525.37
927.24
907.04
442.81
599.66
502.07
563.04
813.56
657.07
655.96
636.11
582.54
448.11
460.28
437.51
415.93
584.52
640.49
679.02
566.54
505.11
545.68
396.95
462.79
496.63
600.25
725.46
645.57
500.72
522.21
423.58
480.79
2549.32
605.65
693.03
613.06
640.07
685.51
639.75
593.73
466.07
369.04
472.09
378.67
512.67
1123.19
551.33
425.27
507.00
452.91
476.36
475.61
550.83
507.62
499.37
534.33
484.60
356.58
514.71
496.38
686.08
658.45
614.05
607.52
584.47
662.81
642.40
554.46
514.98
433.85
2535.33
495.50
624.35
546.17
699.20
624.34
697.60
536.07
501.16
515.16
521.29
454.21
469.95
826.78
464.07
608.77
681.33
584.32
542.92
587.90
570.77
548.81
476.54
520.73
509.52
502.73
652.72
572.51
611.63
575.25
541.22
582.07
563.00
474.58
552.64
534.98
577.97
501.40
2528.75
551.28
460.76
418.41
430.51
431.75
567.86
487.51
554.69
463.43
461.74
556.37
661.15
1276.43
892.11
788.81
754.62
550.15
543.90
414.96
456.50
419.35
462.89
444.36
469.22
2506.50
604.10
570.53
407.84
380.71
409.85
476.33
496.75
531.89
564.74
501.63
459.97
556.23
1362.69
576.00
639.59
711.75
771.82
800.72
947.72
890.99
669.67
501.08
523.04
626.85
2682.38
402.33
649.09
665.84
661.52
540.18
485.07
491.11
375.98
494.55
545.24
584.09
576.38
1155.91
627.80
577.05
613.66
683.57
767.11
704.48
656.70
656.20
549.14
509.69
534.77
486.08
604.65
636.39
699.66
591.33
589.16
588.49
546.42
498.65
452.15
383.47
480.01
468.86
2455.34
839.28
745.45
697.42
529.52
372.07
535.18
563.65
495.16
414.10
433.10
497.85
418.45
965.78
589.86
596.21
511.86
519.98
496.91
427.31
577.44
699.23
795.71
848.74
924.03
747.45
594.23
393.58
338.76
410.86
396.11
363.61
451.77
477.10
540.63
529.44
658.06
616.91
1635.30
535.25
640.70
533.87
604.47
499.14
574.44
592.51
735.87
635.39
561.44
426.60
447.03
663.43
554.06
663.08
761.31
561.35
398.76
436.32
437.50
463.80
750.09
790.67
763.58
625.76
624.21
481.85
530.54
464.36
406.10
399.28
422.34
451.74
405.84
450.84
452.70
375.69
2555.08
692.70
668.13
733.27
671.70
650.53
617.97
521.20
510.47
519.69
667.71
608.23
577.62
1141.97
810.07
888.61
831.13
462.80
440.16
358.28
430.76
362.96
365.02
449.65
478.09
501.41
678.87
570.02
640.23
567.63
588.29
598.24
631.07
590.13
439.23
348.74
460.34
471.53
2419.29
505.42
479.60
532.20
614.24
552.60
595.04
576.45
609.82
484.85
542.38
455.36
478.72
1041.11
587.32
501.50
474.81
549.50
723.82
725.30
800.67
929.56
525.69
410.64
439.66
2393.08
691.32
648.42
580.25
484.92
492.80
405.22
468.61
444.11
407.11
458.84
388.28
439.97
1299.24
567.91
594.85
547.11
632.94
584.81
597.68
525.29
550.27
574.48
585.36
556.01
571.14
611.82
609.65
669.99
694.15
602.76
619.01
509.65
402.21
426.12
454.61
503.78
621.33
2323.01
718.42
649.52
620.05
511.31
513.09
559.71
647.95
640.10
647.07
549.17
552.61
513.23
1305.43
536.83
619.36
396.87
462.02
377.12
552.54
855.61
992.55
776.98
500.11
384.89
2422.55
576.63
659.92
668.08
661.15
610.89
524.18
611.96
831.13
767.48
525.93
621.50
853.44
1377.04
715.02
478.67
462.92
503.30
516.55
508.19
612.67
606.54
614.59
533.93
619.50
517.18
637.34
581.23
597.23
619.00
614.23
563.71
615.46
601.70
607.43
586.23
647.73
744.71
2402.65
865.11
834.40
672.54
555.62
334.11
462.81
395.28
485.99
435.93
491.25
520.21
521.26
655.06
580.61
538.51
624.72
626.60
694.01
540.76
536.31
429.98
379.19
413.59
422.44
574.71
718.08
628.31
643.77
594.00
646.34
693.30
773.92
670.11
598.25
535.55
629.42
648.81
2382.78
613.67
693.14
731.43
628.72
520.64
444.13
465.60
433.65
454.59
465.86
411.25
427.72
939.92
366.07
411.68
476.54
422.86
442.96
553.73
714.47
616.84
687.23
621.03
631.47
567.37
548.53
495.01
565.63
635.15
690.08
619.09
592.58
561.49
555.25
479.87
448.92
449.38
2244.19
631.73
702.61
767.29
839.97
837.34
719.14
710.45
454.00
440.76
423.19
398.49
496.78
1119.39
557.92
494.51
518.44
542.51
675.29
645.21
659.84
550.65
558.11
543.50
513.10
534.26
662.86
506.80
563.22
534.38
588.27
615.79
614.88
559.83
608.31
643.38
707.14
628.82
2293.40
564.27
560.87
586.26
494.89
431.96
446.41
362.20
366.64
445.39
432.72
492.63
519.69
1123.17
560.49
542.29
561.93
547.98
588.82
528.57
556.23
576.16
597.39
588.46
808.13
873.30
1083.94
605.19
583.18
1177.73
662.06
458.73
742.75
979.37
1158.84
857.06
555.64
480.92
410.89
347.68
477.85
695.09
772.72
664.29
665.13
607.95
707.12
584.10
529.59
502.24
2308.79
541.17
534.32
558.82
528.78
371.39
500.38
381.68
437.24
581.74
591.03
582.73
684.99
1151.92
640.94
449.68
588.24
611.74
573.77
572.65
541.03
448.03
441.41
471.16
482.83
497.27
578.09
595.37
692.92
615.69
707.85
726.63
729.11
617.83
636.55
596.15
531.36
511.21
2229.95
569.84
585.25
543.90
528.64
472.33
467.77
434.75
496.47
486.24
583.22
556.11
631.88
1192.43
642.31
531.80
756.63
746.98
755.01
775.26
736.26
618.00
538.63
410.88
436.13
830.77
904.05
398.49
662.29
681.69
640.17
613.15
660.59
591.85
631.49
613.07
587.83
534.28
2185.83
553.71
443.11
377.73
405.70
398.45
616.91
706.70
656.66
409.58
529.14
456.86
365.00
965.37
650.34
600.89
647.64
696.01
663.90
627.08
643.25
620.10
504.15
484.79
615.32
494.20
653.48
633.42
657.30
612.56
536.12
558.65
605.87
527.21
569.83
390.56
426.14
473.98
2191.86
559.39
570.95
471.33
475.01
495.15
531.51
554.01
645.61
519.89
525.23
490.55
575.01
1076.70
598.69
622.66
641.12
605.40
554.06
482.41
562.73
563.14
593.37
642.31
671.69
578.89
734.18
577.19
512.66
395.24
442.54
488.64
477.29
543.49
542.99
567.38
605.22
559.75
2203.76
366.82
317.61
411.43
591.65
670.73
743.32
659.46
660.05
514.85
499.51
494.29
546.04
993.26
434.66
469.24
616.31
710.44
690.26
647.99
697.25
554.44
628.69
555.13
543.86
513.84
554.98
447.03
432.00
410.34
517.40
482.96
545.77
530.23
575.40
527.94
510.47
434.81
2240.36
455.31
518.55
661.59
856.37
800.97
786.96
728.81
451.29
372.92
452.12
683.12
793.60
1190.77
527.49
552.37
562.49
466.62
594.88
645.15
533.85
510.15
511.19
456.68
569.18
404.43
546.71
392.67
461.94
373.27
708.53
907.85
773.96
630.13
632.58
415.88
347.06
402.02
2088.66
525.82
498.48
534.90
492.25
399.18
430.84
480.95
613.15
541.92
598.30
507.78
674.15
1214.18
915.83
855.27
661.30
293.39
375.39
459.10
562.08
613.24
662.28
477.22
453.84
2072.41
741.57
727.53
666.29
641.40
564.10
392.69
408.30
330.98
433.23
338.43
393.87
368.87
1327.63
476.33
550.46
574.97
588.98
560.29
602.66
494.49
595.00
446.38
533.89
460.96
561.90
567.18
579.12
537.63
795.47
777.54
836.94
590.03
629.67
483.13
466.63
336.36
371.36
1851.26
576.41
472.01
544.30
601.26
626.16
607.15
626.64
609.55
534.95
548.62
552.45
542.83
1369.89
665.02
716.94
686.16
695.51
761.84
663.71
357.44
437.81
387.55
336.52
459.33
664.32
932.36
897.31
899.20
813.98
644.81
556.44
493.65
364.28
348.46
376.95
336.12
424.83
1651.97
399.65
381.18
437.57
451.69
637.59
545.31
584.80
588.25
607.12
684.34
728.90
730.89
892.27
383.38
689.89
872.54
352.07
630.22
735.33
648.89
627.64
581.30
626.96
736.40
869.63
1021.02
889.98
679.47
441.98
361.69
400.08
539.45
633.56
517.41
422.07
320.24
337.73
1602.89
427.73
575.09
650.58
683.09
789.20
680.73
709.16
351.38
394.83
372.61
661.38
784.58
937.92
638.52
552.80
504.62
483.55
460.80
552.92
580.09
512.86
379.94
379.38
384.61
2077.92
539.65
481.81
580.37
524.61
459.78
516.55
443.05
533.97
686.55
471.30
386.20
653.81
1272.39
786.91
730.15
582.83
439.29
352.87
389.35
437.37
415.91
505.61
400.62
404.03
455.98
459.53
400.30
520.61
567.03
610.80
653.74
529.28
484.71
524.29
503.65
524.82
481.80
2002.13
562.16
607.72
524.77
580.22
552.46
575.71
591.09
617.84
609.20
732.82
724.99
780.99
1283.68
652.69
536.70
287.50
514.98
403.46
411.86
531.81
560.45
451.30
413.12
447.25
469.96
698.89
627.67
602.71
622.33
605.41
557.72
573.17
542.90
616.00
592.11
517.62
550.69
1849.08
577.35
518.38
511.31
643.39
623.27
552.92
566.62
458.11
540.53
508.62
506.88
405.67
951.31
423.29
326.21
440.32
425.15
444.69
486.59
445.94
554.70
551.30
380.95
474.11
491.64
644.44
658.09
719.97
837.35
799.79
722.69
419.42
319.30
369.15
709.84
948.91
844.37
2178.75
363.78
332.44
490.33
766.57
954.03
1162.84
926.49
801.46
615.18
562.15
477.20
1686.49
332.08
412.53
403.18
361.34
459.84
419.45
309.18
300.56
310.74
307.01
457.49
384.48
590.34
272.99
354.72
422.20
496.13
661.05
572.10
604.66
580.24
563.18
550.44
611.47
509.66
521.09
481.49
545.67
387.63
509.53
467.57
500.18
545.92
554.68
564.29
682.93
605.02
2044.45
730.94
860.64
832.04
639.93
506.09
304.23
399.89
547.78
322.79
438.44
632.71
766.51
1283.23
733.02
635.27
735.93
596.49
585.53
638.39
738.13
683.57
600.19
666.28
506.15
346.08
395.13
330.49
308.54
434.83
620.73
538.13
511.24
337.69
335.43
318.31
427.68
396.19
1775.08
395.75
554.22
455.42
512.78
451.74
573.74
549.14
586.46
517.77
574.69
697.23
727.31
1213.77
872.00
556.26
341.05
296.46
347.14
422.38
469.84
521.92
569.70
630.08
746.88
600.93
779.58
707.51
610.10
551.05
475.39
435.56
445.87
715.04
826.28
632.62
405.60
616.23
1810.42
487.81
723.35
827.76
906.67
793.21
625.17
392.51
440.09
435.02
713.18
727.39
654.58
971.06
849.31
740.99
675.43
521.05
434.20
424.94
390.05
327.07
372.56
335.68
337.85
1653.48
349.34
283.79
425.44
454.21
489.24
499.56
484.32
491.19
630.23
581.10
598.79
545.35
1479.11
625.83
700.01
723.90
767.70
700.25
627.37
507.57
516.92
473.89
517.37
600.14
634.23
695.34
479.62
371.38
329.11
357.32
580.40
468.69
550.41
355.94
393.51
565.44
371.94
1628.10
865.05
815.91
762.57
606.18
716.03
680.96
783.69
833.72
808.68
846.06
659.25
415.90
445.53
382.00
343.38
356.32
437.45
414.78
460.02
438.76
457.37
509.87
654.49
558.61
403.27
407.81
282.32
394.82
634.66
753.25
730.67
645.40
699.91
570.44
604.93
546.79
567.24
1692.74
470.28
394.34
424.91
547.54
670.71
797.83
678.16
559.10
487.09
609.76
705.63
517.06
1366.22
408.43
420.23
470.34
459.14
354.02
439.52
492.58
498.07
523.45
580.25
473.56
640.02
596.86
634.94
647.37
758.64
726.85
683.81
386.00
394.64
297.04
352.10
339.04
480.34
1420.39
618.32
522.51
534.51
504.36
635.92
629.21
556.08
672.22
828.38
904.08
704.48
586.79
1438.47
451.04
462.16
421.44
524.39
395.85
347.91
283.12
371.38
389.64
457.35
487.29
554.35
570.93
588.53
589.25
809.82
1020.47
1264.62
1328.55
1417.49
913.64
505.79
655.27
2145.05
535.17
384.98
326.59
459.75
600.47
663.62
604.36
512.27
461.12
383.81
371.95
405.64
986.27
505.72
447.12
461.13
483.31
545.88
446.31
556.86
521.72
504.60
512.38
502.77
488.28
682.36
602.01
626.98
603.42
617.25
639.77
626.47
597.73
589.74
614.68
480.04
518.49
3302.91
480.07
555.33
525.01
571.75
592.23
555.49
606.25
616.04
526.21
618.99
616.02
495.69
1028.90
574.86
466.09
547.18
489.69
510.86
670.90
863.21
949.91
857.69
543.27
383.28
1475.36
314.90
384.66
445.33
468.11
458.63
586.74
612.10
535.37
366.03
364.83
496.51
390.14
1411.18
507.96
436.38
470.51
457.51
555.60
675.96
629.21
571.77
432.65
506.72
583.14
605.64
776.05
609.53
604.43
734.39
388.31
337.28
344.72
412.88
336.68
477.08
547.02
580.24
1289.14
735.52
744.20
683.89
452.10
440.65
561.41
546.64
604.75
715.31
680.42
676.08
528.81
1376.54
551.62
538.35
432.73
350.00
353.29
394.15
397.04
537.86
678.85
691.98
466.83
389.28
386.08
450.75
565.41
677.39
532.24
540.64
508.59
653.24
590.57
643.83
575.58
503.54
1212.95
600.25
507.81
561.99
480.76
525.98
495.05
611.42
682.80
708.39
634.20
693.43
543.20
1501.99
514.77
379.35
293.59
367.12
379.04
322.02
369.54
647.73
693.43
690.10
646.91
554.23
464.16
386.04
311.98
339.90
363.16
399.75
284.57
441.84
339.67
533.68
485.71
492.31
1260.27
562.98
536.63
597.44
601.48
587.52
524.73
589.33
494.74
509.74
606.59
836.88
905.77
1625.60
765.16
620.43
572.80
486.84
597.43
639.19
590.33
654.45
547.62
503.17
387.10
385.40
699.69
550.01
348.14
322.49
442.56
540.04
512.57
545.35
493.62
707.72
716.62
855.18
1557.65
816.79
772.36
672.79
581.49
446.10
358.00
467.11
345.94
739.07
955.09
982.28
712.43
550.14
627.61
343.46
435.00
510.69
574.92
685.35
765.22
799.43
767.96
792.77
618.27
3385.75
459.93
406.38
317.14
375.25
329.29
361.66
435.07
585.14
554.32
643.07
571.55
471.53
1007.79
534.72
430.09
608.07
574.69
713.23
706.48
782.66
784.83
755.14
521.96
500.70
529.15
605.38
520.13
525.26
519.35
441.21
346.94
471.79
397.34
472.51
383.97
510.24
441.19
3445.31
367.09
365.31
406.63
462.97
406.06
392.95
461.58
534.00
535.72
712.29
637.60
635.71
1146.39
598.90
508.13
527.84
489.46
494.49
509.95
677.17
684.31
681.43
605.77
544.46
295.03
540.18
377.34
575.33
630.66
675.05
668.03
690.59
591.86
681.36
520.21
534.57
463.26
3309.58
532.29
486.13
421.96
457.84
524.88
593.86
597.49
682.02
578.30
607.26
514.59
561.03
1188.85
655.06
668.62
718.53
517.56
376.07
331.89
343.91
324.05
380.69
417.49
456.08
431.74
532.68
431.52
446.40
415.10
372.72
571.58
746.28
908.84
801.08
683.84
386.82
350.63
3178.85
860.93
800.21
548.14
426.66
368.20
405.04
460.08
409.69
486.54
476.87
516.02
656.93
1261.67
682.44
592.02
486.83
585.13
697.15
582.88
617.06
547.97
531.13
459.42
411.50
419.00
569.74
549.52
500.14
356.63
347.78
370.37
440.85
468.75
572.21
602.75
667.63
577.57
3199.93
616.08
573.69
609.78
654.93
617.92
624.43
507.04
515.80
425.87
424.95
538.41
644.05
1266.74
642.70
551.18
495.54
432.03
561.92
491.85
669.22
602.82
663.04
579.20
675.22
509.16
609.92
499.29
613.93
678.17
775.17
632.89
504.66
349.72
593.86
692.75
554.44
319.21
3199.84
527.08
525.51
558.06
638.11
630.17
621.59
499.14
507.74
499.55
592.83
576.81
628.19
1238.20
552.59
489.27
549.40
451.53
513.68
632.22
684.50
519.91
597.98
554.46
604.85
494.31
609.08
505.77
536.12
559.79
664.77
648.10
637.50
444.33
364.34
368.65
420.78
406.06
3193.66
430.41
564.53
580.18
613.62
566.02
620.95
572.45
605.57
429.48
407.60
440.92
435.96
1133.12
442.27
393.93
496.36
558.06
747.58
998.06
1082.39
883.42
606.90
388.21
462.70
1788.74
732.47
577.80
381.90
378.86
352.21
305.56
566.07
466.42
442.64
340.14
550.90
685.36
785.33
476.53
482.22
401.98
313.59
381.00
439.73
424.16
504.93
560.49
621.29
529.96
640.99
666.61
665.90
411.43
412.26
382.03
430.68
463.50
467.21
503.85
717.18
688.77
646.83
3150.48
614.96
611.61
712.05
825.37
829.05
648.03
613.13
472.65
377.10
407.19
362.27
326.51
1347.82
354.00
414.04
408.18
432.99
421.08
586.09
523.86
489.70
550.32
646.73
553.56
531.46
668.93
716.13
761.15
762.54
601.67
525.67
444.56
563.91
542.54
584.65
582.43
597.28
1181.76
694.62
606.59
566.50
461.24
516.91
383.42
434.81
408.74
490.91
434.92
408.14
440.64
1557.42
603.12
664.62
570.24
436.24
452.05
630.81
664.97
666.21
520.68
464.78
443.29
526.42
507.90
400.66
362.09
378.86
424.48
446.73
350.75
472.06
522.02
552.02
560.65
557.51
3227.17
701.40
674.34
691.88
565.72
664.14
634.48
477.15
322.94
407.46
520.80
493.62
500.48
1513.43
666.64
934.32
816.82
557.03
358.99
415.55
426.27
379.51
358.76
602.87
656.65
3231.07
695.75
663.17
567.44
514.50
469.73
418.19
437.43
601.08
513.13
578.84
342.89
377.51
1052.74
676.49
675.19
627.42
563.33
578.90
535.33
510.24
507.93
450.07
394.17
413.13
419.25
556.43
464.52
551.76
445.30
578.93
554.66
710.68
743.12
805.39
671.20
709.03
678.72
3219.47
445.85
435.71
330.53
492.63
567.52
469.94
459.10
446.09
366.64
493.65
381.64
422.46
1129.13
444.70
514.62
608.69
583.49
697.63
674.08
741.02
636.38
645.07
564.58
611.15
611.14
660.96
530.71
571.55
504.76
556.05
548.11
524.35
490.57
412.81
364.98
436.37
388.06
3203.78
459.42
411.76
401.15
421.63
418.65
427.33
534.33
575.70
671.09
682.45
667.73
817.62
1262.23
633.15
577.87
478.02
384.84
477.49
367.93
609.88
722.16
863.19
947.01
1014.48
2312.44
792.07
586.45
530.98
390.04
415.06
347.30
388.71
354.09
380.90
322.05
484.19
390.28
587.76
495.18
486.67
529.60
640.64
585.57
725.79
595.92
405.94
482.05
318.15
371.76
3132.55
587.19
632.83
556.04
593.54
568.65
636.78
548.33
556.68
564.94
565.12
428.56
531.56
1292.51
664.34
587.59
615.39
430.24
411.63
378.71
508.06
609.19
671.44
680.43
654.70
558.74
636.07
551.85
609.07
583.27
586.82
482.33
465.65
492.54
576.71
532.86
542.13
485.96
3117.63
544.04
548.24
366.69
453.31
475.60
583.19
563.44
525.84
433.36
508.50
516.92
632.01
1276.48
602.17
403.77
349.25
408.79
508.35
541.79
508.14
488.22
546.42
384.30
481.76
456.61
665.94
492.73
460.76
424.02
432.51
365.06
391.66
449.26
599.89
551.04
570.97
574.16
3057.05
629.87
733.36
565.93
578.67
501.39
495.11
476.99
565.02
514.46
621.02
507.01
630.77
1226.89
579.50
417.93
464.22
439.62
625.32
627.57
715.46
726.51
894.97
756.78
658.05
308.08
571.23
549.07
435.91
500.02
527.30
659.12
684.33
390.88
736.12
858.78
704.27
398.06
2905.16
617.00
689.31
808.87
969.06
1028.61
982.05
747.62
750.84
724.94
572.55
404.89
3228.29
344.48
367.03
500.11
328.97
419.42
328.72
501.54
439.49
525.01
633.85
587.17
742.50
1213.75
913.68
690.35
607.01
334.35
354.49
474.11
519.36
376.23
476.97
431.34
587.07
2892.15
663.94
395.92
456.49
575.62
439.64
460.30
357.15
443.97
455.70
378.25
472.27
361.77
1487.78
616.36
672.18
609.46
527.41
527.72
561.29
595.03
644.83
629.80
630.80
569.96
650.80
785.50
656.38
517.29
509.54
507.21
610.20
556.32
638.03
571.40
658.65
487.60
537.47
2936.05
656.74
559.88
569.93
518.47
357.40
432.99
370.28
394.08
524.74
588.27
537.40
510.53
1475.55
533.60
567.41
554.06
663.47
619.77
656.04
674.28
636.04
580.94
524.95
377.29
429.91
445.37
554.00
586.74
738.13
640.55
574.11
594.61
530.32
380.81
384.15
363.24
404.13
2967.36
551.39
513.29
566.68
543.63
589.14
488.25
505.62
571.88
522.75
510.35
589.79
563.72
1475.18
746.99
1010.45
983.33
856.82
451.39
576.17
740.99
507.11
401.52
512.43
575.36
1860.57
718.34
756.16
612.32
518.82
440.51
384.46
403.35
384.54
368.41
428.77
473.11
522.44
736.68
744.60
813.72
793.70
724.48
549.91
399.69
339.76
358.33
376.45
354.36
563.08
499.62
731.43
707.87
698.87
568.38
501.49
429.03
526.89
464.06
426.55
373.78
431.28
561.13
3041.68
789.51
762.77
720.62
613.91
454.09
442.35
402.71
489.42
546.84
431.74
479.14
410.98
1087.73
672.47
493.54
351.34
370.78
423.11
524.49
701.59
503.85
531.72
333.45
363.48
406.41
590.99
739.88
899.01
825.00
786.21
649.18
607.41
432.75
390.81
499.68
507.02
500.91
1859.31
512.50
487.72
457.03
522.77
594.45
625.76
494.51
545.17
477.88
569.64
556.68
436.89
627.49
435.69
431.50
496.33
447.72
485.31
331.10
434.85
441.70
463.22
510.12
617.79
682.20
741.17
602.28
584.98
522.18
503.24
475.62
499.64
577.91
655.39
601.14
616.86
371.63
2902.48
488.46
591.70
596.94
803.82
709.62
718.13
527.94
466.15
353.11
376.65
401.92
416.53
859.00
517.97
551.83
541.62
619.15
642.43
602.19
545.80
463.71
509.58
511.51
565.71
565.54
841.61
673.05
582.76
543.20
426.22
414.91
497.26
429.69
508.57
474.74
473.83
428.86
521.70
628.44
616.71
713.82
713.02
552.01
549.85
447.92
346.07
406.26
506.52
403.84
494.17
2895.24
717.47
577.08
460.83
407.74
424.38
441.03
544.66
503.79
522.49
560.42
578.18
530.30
1556.06
576.71
640.14
574.66
681.34
622.14
698.40
645.52
535.22
401.90
432.73
578.91
687.64
588.50
509.78
475.76
651.58
705.15
523.26
432.28
434.78
389.41
440.58
376.51
400.82
2871.48
642.77
546.33
519.82
515.38
612.00
677.53
800.39
830.86
781.04
464.69
426.32
386.12
1498.14
516.78
546.33
528.85
547.56
413.17
369.79
388.76
398.39
414.18
480.37
463.35
466.84
503.60
668.92
842.29
894.89
667.27
495.61
311.31
475.59
542.77
671.73
705.76
770.96
2813.86
684.49
454.84
438.21
645.85
856.05
853.70
329.33
463.74
578.82
580.74
755.50
596.17
1579.29
632.27
721.24
581.15
684.78
533.09
536.84
466.86
545.31
454.47
464.44
446.59
567.94
712.91
713.53
452.92
496.68
402.17
450.49
509.53
520.47
437.82
509.71
512.08
616.75
2913.08
848.07
741.16
677.21
548.65
554.03
488.97
546.06
539.80
560.48
455.20
435.05
424.98
1508.11
396.92
455.92
336.91
469.55
475.78
533.92
620.32
606.96
494.02
518.48
364.01
417.59
528.46
500.42
497.43
544.46
366.27
483.50
487.43
680.99
579.05
695.59
591.28
570.07
2791.03
580.38
593.45
611.24
536.47
510.75
538.79
638.74
565.67
678.80
633.37
597.15
452.93
1485.58
488.34
619.80
704.64
784.34
623.95
625.35
439.05
385.35
404.53
399.97
391.10
605.92
645.87
688.62
594.26
596.73
426.32
409.06
407.11
407.41
408.23
564.48
470.42
582.37
2786.14
538.55
581.21
587.54
562.06
521.09
493.95
595.82
496.39
542.20
386.77
451.62
380.90
1560.88
417.40
630.58
534.02
669.37
528.46
525.87
514.19
527.60
546.18
568.99
522.32
573.21
647.60
652.55
839.74
1091.41
842.03
444.79
954.72
883.00
402.56
555.50
585.29
687.44
1002.27
1083.49
1194.09
1238.28
979.33
679.34
433.06
466.94
576.06
666.68
446.48
422.98
562.27
581.04
538.81
567.65
427.32
477.77
519.43
514.96
494.06
443.78
617.86
385.95
2679.63
683.73
499.62
525.67
542.25
694.25
478.17
369.26
456.88
448.59
408.98
545.59
386.39
1547.59
553.34
626.52
650.13
702.40
588.89
558.74
476.08
547.16
581.69
685.14
731.58
563.46
551.25
467.88
428.66
470.00
413.04
451.06
406.98
469.34
610.18
810.85
752.56
812.92
2807.11
660.11
445.77
464.51
417.52
405.30
380.63
456.97
454.10
491.58
453.35
475.06
475.97
1561.77
421.99
515.08
644.95
796.32
561.72
550.98
405.36
454.91
460.43
609.17
557.34
655.09
753.30
771.39
625.16
602.27
484.06
402.34
428.28
423.12
371.69
431.12
476.33
482.84
2802.57
553.38
549.48
568.20
533.53
520.29
510.03
561.78
554.50
612.97
517.50
584.64
520.97
1538.19
637.22
603.25
537.27
520.60
521.25
508.95
521.18
504.78
565.99
570.78
397.80
494.29
503.73
603.90
531.82
601.77
542.87
549.05
610.74
703.15
696.62
691.53
461.34
563.61
2647.04
488.97
403.72
473.53
541.07
615.76
498.66
559.90
531.63
592.94
627.07
623.07
542.15
1573.97
701.84
709.78
551.23
528.44
424.22
422.90
454.03
413.44
453.52
631.61
785.36
909.28
711.96
549.71
1434.44
1426.67
867.52
451.50
516.67
555.00
576.76
904.28
973.55
1004.57
965.37
856.21
750.93
715.31
627.57
524.73
492.53
563.84
587.96
534.84
498.23
486.72
1000.35
536.11
515.81
517.83
448.47
444.65
446.02
589.11
619.14
751.41
628.38
627.82
452.56
588.27
403.34
401.61
367.04
423.90
420.44
395.81
433.04
569.04
488.93
524.11
477.61
2819.24
578.59
699.70
591.88
686.41
736.77
989.40
948.85
834.41
557.35
468.69
413.91
693.28
496.48
434.59
411.79
351.87
403.85
449.85
385.76
491.53
658.46
682.65
627.02
605.47
2674.60
546.29
420.55
612.62
523.21
549.33
560.28
593.78
633.65
763.13
642.89
578.11
437.69
1559.06
358.08
354.46
438.82
501.49
545.42
585.54
564.64
589.26
522.85
596.90
679.64
551.49
661.98
618.71
621.64
885.13
900.51
867.06
618.95
405.80
928.37
573.99
415.56
605.25
1804.98
564.47
424.15
489.74
399.58
480.83
477.38
549.10
487.19
540.83
534.00
558.52
553.09
802.79
582.50
615.26
534.59
723.60
665.97
615.95
485.27
427.63
474.75
530.81
707.56
950.46
1047.35
789.12
452.97
548.72
825.13
749.17
445.17
544.79
652.64
860.04
821.56
677.15
1913.02
655.88
609.02
576.85
422.30
458.69
447.74
396.21
422.74
405.28
381.20
530.94
520.82
796.02
552.19
577.66
580.35
622.76
592.03
672.79
571.25
627.60
581.57
505.50
408.82
514.98
545.19
639.24
576.69
477.71
504.88
519.88
548.36
630.04
666.56
752.16
679.69
727.65
2561.27
606.09
544.97
642.56
623.40
694.42
596.32
509.04
491.90
418.62
369.27
432.07
353.70
1550.35
455.85
508.29
529.17
609.83
551.93
635.60
550.23
541.04
514.02
536.81
409.43
525.70
589.35
502.74
439.12
503.02
484.47
563.19
490.84
518.17
500.94
471.32
468.82
476.08
2539.17
653.97
637.60
765.14
648.71
743.02
559.79
561.99
424.79
452.93
491.64
473.84
444.26
1693.22
612.53
727.93
711.51
714.29
576.64
587.46
560.98
621.23
507.69
580.19
551.80
711.27
922.93
902.77
711.13
660.77
616.25
557.08
481.83
456.87
414.19
362.55
493.94
504.54
959.16
468.07
417.27
461.46
361.58
353.25
453.01
419.73
494.08
537.44
562.70
587.48
587.33
741.65
626.63
618.60
521.54
513.82
412.93
485.05
505.67
733.54
714.77
801.34
622.07
2610.60
648.26
688.64
692.62
679.14
589.72
616.95
523.91
484.35
411.18
396.76
353.52
448.35
1061.88
664.15
595.64
664.26
588.39
516.26
434.46
466.52
425.64
415.15
408.20
500.93
497.47
662.89
564.52
649.63
580.89
610.81
633.36
632.69
608.57
476.77
458.33
497.19
543.17
2490.06
685.82
839.82
816.54
702.21
496.35
424.69
545.27
399.38
450.91
624.71
629.60
882.72
1269.10
709.13
574.18
519.55
466.76
437.96
525.50
418.74
400.93
497.13
725.22
1168.60
1049.49
897.49
571.96
423.68
479.37
642.63
606.33
688.81
638.48
635.42
704.79
875.66
944.34
1230.56
914.16
673.91
410.66
1007.61
1265.41
1019.24
720.86
450.23
454.62
498.79
410.53
576.14
459.90
503.54
503.43
422.85
480.09
508.63
480.91
548.68
565.27
617.18
502.87
2568.70
595.11
625.59
620.89
697.65
666.03
661.22
572.96
630.13
567.15
770.37
772.17
742.87
1096.80
515.30
360.64
443.42
522.93
667.40
654.29
674.12
491.56
453.56
467.10
720.56
710.41
560.06
506.33
467.73
464.15
714.93
757.95
769.55
661.45
634.40
548.80
511.26
407.90
2466.43
425.18
442.84
419.99
490.35
451.79
523.65
548.70
563.83
438.48
464.03
450.20
562.67
1037.89
550.06
533.13
619.08
617.84
741.93
528.06
633.93
550.16
613.36
595.35
538.03
501.23
781.59
822.62
932.94
678.53
715.14
608.78
768.04
757.00
699.39
655.25
631.27
465.66
2515.34
391.41
398.83
386.55
375.64
401.97
382.73
451.12
428.01
371.78
462.60
458.94
445.10
1040.23
589.19
515.46
532.20
544.52
600.48
553.23
585.75
588.26
595.26
592.16
630.45
747.82
990.46
942.74
957.92
707.27
623.97
523.36
459.67
474.46
436.93
336.06
443.59
433.19
1595.58
537.64
603.47
611.29
749.77
697.88
747.70
629.02
491.48
448.77
475.41
491.43
530.26
747.73
639.80
591.08
562.94
654.11
838.86
834.69
666.91
553.78
548.24
625.04
604.30
546.19
547.47
412.66
417.14
412.99
457.92
547.73
534.16
605.38
621.71
545.51
435.38
518.13
2397.45
525.86
566.90
560.92
578.51
445.67
629.52
716.36
1004.03
798.94
576.12
447.36
497.12
696.10
573.83
516.71
478.98
516.46
609.37
487.80
654.33
607.31
653.81
493.61
589.86
520.76
728.24
635.14
755.22
635.09
420.90
372.30
531.84
360.31
515.46
498.07
534.06
494.55
2369.48
588.66
607.43
402.16
691.59
542.19
477.51
580.63
640.54
586.83
596.59
559.28
679.12
1263.71
744.35
674.62
745.14
667.27
702.78
627.67
673.02
597.32
467.16
517.66
504.43
524.92
547.79
505.21
534.06
528.87
478.60
631.68
714.77
643.66
644.15
598.85
432.00
417.32
2436.96
452.44
495.00
515.07
646.28
621.00
694.18
729.23
749.47
657.06
630.95
634.14
546.28
918.71
387.72
432.39
480.01
465.36
537.39
420.62
507.46
480.86
533.80
529.70
539.11
521.13
662.32
582.29
625.42
430.56
489.69
487.77
606.31
474.68
612.42
542.77
558.33
536.53
2267.37
617.90
654.69
632.88
532.13
472.07
526.26
581.85
643.23
689.84
924.84
912.54
821.57
880.53
657.00
614.23
463.11
625.47
674.96
424.03
587.69
677.47
745.30
594.81
494.95
2393.48
570.36
547.25
634.69
549.75
656.83
588.76
800.23
741.28
668.72
416.56
435.06
424.80
1590.99
394.80
451.80
421.26
360.27
329.68
467.06
458.57
633.20
861.70
960.99
582.13
557.66
407.33
414.77
386.01
584.94
662.83
733.32
613.33
550.02
542.30
509.85
512.20
494.73
2002.07
598.69
576.84
688.71
558.42
583.96
429.52
434.04
398.81
439.09
449.34
460.07
467.09
665.44
519.13
712.26
686.23
682.31
388.94
543.40
600.70
728.43
743.93
757.41
622.83
713.88
785.74
749.59
397.79
443.53
486.91
720.14
721.87
714.04
561.35
500.51
373.10
431.99
2294.11
684.40
641.93
670.00
472.50
488.78
464.35
497.62
560.18
606.28
507.50
679.16
533.23
1670.49
541.90
563.25
499.46
495.30
544.29
592.75
632.80
760.76
695.60
593.54
491.02
484.06
566.50
527.67
465.76
490.11
593.95
544.64
531.55
654.62
505.06
596.30
517.34
641.10
2159.29
657.30
578.90
643.51
655.92
776.27
700.71
801.89
782.22
764.61
627.55
580.26
552.14
1614.65
569.52
663.67
440.37
458.81
525.10
469.00
478.28
441.68
475.61
537.97
405.08
518.19
708.58
805.74
795.43
682.86
634.80
637.92
653.19
775.20
661.48
668.12
580.90
512.64
2181.04
472.18
405.59
409.60
469.25
523.57
495.26
535.34
474.12
497.24
492.37
537.82
536.98
1651.93
514.33
599.44
574.20
617.61
554.32
603.67
433.94
509.23
647.78
728.70
571.71
506.29
531.33
586.63
494.88
632.34
667.49
786.13
645.27
606.49
453.14
472.26
432.68
453.87
2281.13
404.67
375.00
398.68
420.65
488.07
454.05
494.39
499.23
548.53
477.59
481.21
431.06
1666.87
583.82
636.79
567.71
535.11
543.65
510.04
667.53
817.86
837.48
780.85
750.64
577.57
510.37
616.24
666.09
761.67
558.82
434.56
354.67
517.87
610.23
819.06
790.23
865.02
2327.77
717.55
579.59
594.14
603.45
649.10
721.61
798.35
674.17
431.86
813.25
1514.89
1349.33
712.84
532.12
639.42
710.05
843.99
701.41
750.64
543.77
440.95
492.78
545.03
654.63
2172.62
620.62
574.85
426.25
496.69
387.29
429.60
390.27
599.27
571.67
538.13
561.98
671.60
1273.98
787.85
787.77
778.09
680.27
550.96
422.30
351.08
350.78
376.29
462.34
492.63
586.73
742.12
651.20
674.31
396.68
425.36
487.97
558.15
480.84
565.91
489.94
532.62
461.13
2259.02
591.22
872.93
655.26
637.42
476.35
490.29
525.82
622.17
580.22
575.21
491.69
477.54
1022.52
521.82
479.79
516.40
491.96
425.47
423.57
548.76
518.33
569.55
486.66
424.31
388.49
449.32
422.10
515.75
480.63
679.89
751.29
717.27
487.79
419.54
467.07
739.23
863.16
2479.83
775.69
660.08
615.24
622.64
623.24
674.06
487.17
404.78
334.79
324.59
411.79
426.38
870.66
405.34
409.11
463.00
473.84
543.85
453.46
488.19
481.40
598.12
529.00
785.93
848.14
1059.19
781.32
560.92
360.85
414.64
439.00
629.54
684.42
719.37
705.85
625.54
485.54
2231.88
752.51
777.61
635.99
638.67
491.39
556.81
521.72
553.30
542.49
581.42
583.59
645.92
1283.42
719.93
605.47
537.55
378.67
442.67
366.74
496.30
429.87
431.11
469.94
726.44
716.70
938.51
775.18
718.09
576.97
590.80
523.67
497.62
384.51
429.33
287.00
382.84
437.97
1698.66
426.20
489.96
444.87
633.57
590.31
716.49
880.49
917.06
711.98
515.42
307.28
374.20
431.31
511.25
545.96
697.38
657.47
598.85
556.42
620.20
531.77
617.35
470.92
469.69
2050.61
603.87
603.82
615.11
575.25
549.92
569.28
558.34
384.26
357.97
523.92
760.97
702.59
1720.97
483.88
457.57
327.87
400.07
390.06
516.03
520.50
557.27
653.76
668.43
719.35
722.91
907.31
977.76
912.35
952.18
784.03
479.20
396.48
485.73
423.74
288.66
448.14
424.97
414.42
362.86
389.49
421.56
429.43
576.36
578.58
748.11
682.94
764.70
756.82
598.75
2057.72
475.56
409.91
504.23
485.76
688.12
788.44
836.70
798.43
699.30
314.43
488.40
317.57
1648.69
459.92
531.69
464.91
496.02
550.61
679.06
737.84
896.39
651.02
541.17
460.96
2151.43
352.49
544.55
500.45
458.90
484.57
792.30
751.06
649.78
363.81
378.41
426.41
485.57
1040.87
590.70
617.66
770.24
614.59
668.32
566.44
610.32
512.35
498.26
437.09
643.47
618.29
788.07
705.16
752.38
592.49
555.50
484.45
400.79
438.79
385.86
397.42
406.99
451.69
2121.23
638.23
780.99
614.55
509.31
498.59
647.17
725.71
704.73
630.35
586.69
537.48
569.16
1142.50
614.82
563.76
680.97
613.47
569.78
406.74
413.35
397.96
414.23
354.36
451.37
507.96
653.19
555.48
677.86
487.17
535.28
452.71
435.53
444.98
437.41
388.35
420.29
533.43
2050.14
779.23
884.47
506.46
324.95
371.75
416.08
610.79
787.98
850.22
924.60
790.11
678.03
701.82
490.54
354.46
397.24
357.27
352.24
344.44
425.34
484.02
538.56
468.38
357.38
344.39
538.60
474.79
531.38
520.04
547.20
539.25
522.70
523.30
675.96
698.70
782.91
628.38
2066.70
412.02
407.95
459.92
616.69
728.39
644.26
502.37
516.03
354.50
382.26
410.96
452.50
1056.56
513.89
538.29
577.82
606.86
636.79
482.92
582.63
561.77
623.17
651.27
638.23
719.79
868.99
642.62
646.50
324.84
353.70
340.81
336.80
334.67
433.77
413.30
512.54
527.70
1782.41
651.72
464.19
303.48
398.13
433.43
725.69
727.39
804.04
716.95
631.63
590.27
434.32
678.61
577.45
585.84
455.64
449.35
520.83
400.56
464.78
381.04
458.50
438.56
525.79
521.76
718.12
692.97
684.41
649.54
588.62
520.13
442.95
466.17
474.62
470.72
512.37
542.33
1921.03
699.36
692.18
612.03
519.80
368.99
401.82
403.69
571.76
552.94
634.07
646.00
728.48
1195.52
771.44
518.36
436.04
304.42
380.39
525.20
641.55
659.30
713.57
609.03
567.91
508.20
618.19
437.29
506.76
449.96
435.71
393.28
325.67
454.83
538.71
429.19
544.20
492.02
1902.61
488.35
406.80
602.92
827.31
751.09
773.62
638.04
685.20
619.01
611.90
365.90
422.78
940.11
430.94
398.38
426.00
611.12
819.87
823.51
708.45
416.23
480.86
548.69
423.39
338.72
643.50
597.63
549.37
559.68
738.24
709.08
723.55
606.90
561.30
522.52
374.59
353.70
1741.06
620.60
774.64
763.55
805.37
704.92
737.80
656.01
690.08
663.94
610.71
499.11
532.93
966.81
384.80
405.24
429.46
459.06
613.96
540.48
557.80
434.91
443.22
507.86
503.94
314.99
408.85
362.15
362.13
387.28
467.84
446.63
514.61
444.17
545.05
548.94
625.54
511.10
3287.05
625.17
590.43
593.00
739.05
778.76
627.17
586.14
557.29
392.78
322.57
327.22
413.80
1094.52
628.41
688.60
739.07
708.77
770.08
629.61
660.78
614.70
494.14
454.36
475.08
423.62
625.09
422.26
461.47
470.99
497.00
560.48
606.56
662.41
787.61
692.25
614.28
497.05
1755.05
478.12
635.66
609.21
807.03
764.52
755.09
510.81
523.38
552.02
441.98
334.57
344.27
952.34
475.32
572.64
735.04
687.23
841.98
784.49
468.91
335.62
494.22
324.74
399.52
437.99
727.71
557.76
566.99
348.71
315.59
298.05
414.44
322.36
431.02
483.10
698.17
824.83
3337.83
901.48
1178.54
1066.04
996.04
559.72
334.82
400.39
324.07
364.69
408.42
455.06
1725.68
450.45
454.59
445.08
552.28
530.66
688.81
749.16
958.88
839.82
698.18
341.52
454.53
740.95
328.52
465.76
632.25
523.75
560.82
645.77
703.48
694.55
704.64
565.78
650.81
529.68
640.70
538.51
629.81
590.01
549.40
513.35
510.14
417.70
546.56
519.78
534.92
498.75
3432.45
429.85
465.53
414.78
558.54
608.32
732.76
688.89
737.23
513.95
440.70
422.63
434.73
977.44
561.47
595.47
566.48
523.27
604.97
557.51
564.35
418.98
453.27
407.62
459.80
371.19
497.64
353.56
464.69
512.74
483.90
386.93
451.26
342.62
410.04
495.11
605.77
615.87
1781.21
632.51
700.89
604.51
663.09
510.08
388.59
356.44
562.22
541.66
628.32
681.53
955.75
1306.97
733.36
468.59
498.51
421.55
442.14
430.49
510.51
440.12
469.37
458.82
637.11
1579.98
591.59
605.95
775.38
590.25
520.79
488.15
667.48
552.97
545.70
629.07
870.08
898.61
1074.20
562.32
335.16
575.16
425.16
332.83
356.92
347.49
409.55
435.62
518.59
634.21
3393.69
684.27
735.84
725.40
706.60
587.31
552.57
425.23
473.58
403.88
367.26
388.05
601.10
1277.34
872.67
912.46
1039.36
765.02
482.62
657.35
413.25
437.16
675.68
901.26
1024.72
1895.59
920.58
600.73
452.81
437.30
441.98
377.80
351.66
314.23
396.26
387.12
398.77
1543.95
414.13
386.93
525.16
534.83
599.69
485.47
474.09
510.59
619.42
631.91
592.42
448.41
1712.50
482.51
505.70
540.74
793.56
764.97
683.30
473.21
643.62
647.91
580.50
554.32
652.34
593.68
383.67
351.09
631.59
516.21
675.33
518.24
394.57
529.70
742.79
502.94
508.87
1293.34
527.25
439.31
534.59
471.68
526.12
377.92
521.76
453.86
648.22
512.91
603.14
547.92
1822.41
656.85
663.42
499.30
526.10
423.00
502.17
395.64
532.86
590.26
668.21
527.89
328.04
492.75
407.47
459.37
661.81
602.89
632.61
458.85
566.05
532.62
568.60
470.54
535.66
1299.01
629.82
579.40
560.72
541.37
630.20
606.21
659.10
601.82
727.29
650.71
628.76
606.12
927.42
435.65
444.03
384.78
445.98
525.02
556.60
501.84
605.80
561.85
651.70
582.08
730.05
817.51
813.23
572.71
434.87
424.22
449.03
315.69
368.97
475.07
383.62
383.29
523.09
1444.94
869.02
752.71
677.33
563.87
543.91
554.35
614.95
541.80
537.31
564.09
433.75
440.77
1720.70
347.24
505.93
431.03
449.89
583.09
628.45
595.32
474.40
316.76
464.82
367.71
437.95
591.26
571.87
523.49
671.66
619.75
687.02
493.65
560.98
508.79
695.97
722.07
743.70
1179.47
383.68
364.95
350.28
463.22
633.35
768.62
793.83
813.18
887.09
857.76
834.49
714.05
730.04
416.97
542.29
374.91
344.34
473.60
568.22
574.06
524.47
346.83
477.26
569.19
449.04
377.49
415.01
505.87
661.05
669.76
799.10
736.60
528.51
409.33
442.09
377.54
629.30
1158.08
754.30
962.39
862.97
485.20
426.19
364.16
293.11
353.58
387.85
440.86
686.75
547.00
858.67
739.78
739.11
600.47
608.39
462.26
494.78
559.34
713.76
508.30
627.16
400.53
403.15
544.46
847.58
847.52
809.93
684.62
539.39
436.55
622.07
523.03
617.91
668.50
646.32
1179.79
520.28
601.91
670.59
620.45
590.68
399.88
612.14
601.48
429.44
357.39
392.64
497.39
1157.80
835.56
778.36
561.72
425.31
338.75
402.55
417.83
439.71
436.24
505.49
550.57
582.49
638.95
661.33
534.67
521.86
424.62
493.32
556.96
570.58
625.24
557.27
485.73
472.14
1203.55
607.83
598.41
698.38
597.62
691.91
539.06
512.01
413.67
513.82
419.13
518.01
513.01
963.09
553.50
581.14
567.54
627.26
527.26
401.67
343.13
486.48
583.38
634.54
588.91
591.09
680.67
706.08
652.50
696.19
655.22
589.75
531.51
530.20
535.89
446.55
455.44
500.97
1199.23
590.08
600.85
593.76
516.79
547.93
436.36
492.39
546.74
497.38
471.04
434.40
507.30
960.38
653.65
667.18
657.95
567.08
506.08
578.40
577.44
695.91
644.98
674.49
419.44
641.12
590.25
387.96
460.11
617.90
468.49
519.43
553.82
594.13
591.75
627.29
544.25
538.39
1152.17
519.76
395.61
450.50
530.34
843.10
1043.94
1085.38
636.76
540.55
381.55
459.22
399.45
494.06
404.83
384.11
380.58
600.74
715.14
883.68
730.39
631.67
359.99
457.45
467.98
3303.36
695.10
712.60
823.42
753.86
557.85
462.36
492.42
562.02
341.80
388.97
545.07
621.04
1208.14
342.13
481.19
626.03
762.31
803.98
763.39
733.02
653.17
648.93
584.24
614.67
548.34
608.75
520.94
523.82
495.12
646.08
663.23
693.29
705.21
741.03
607.24
679.69
526.03
3191.83
407.43
345.95
383.47
536.74
575.93
500.38
396.97
393.52
478.44
685.65
619.56
641.04
1305.57
680.56
510.92
445.31
323.39
304.25
387.58
503.34
458.62
414.31
330.57
522.21
451.68
537.48
372.55
628.91
685.03
668.54
486.53
591.27
423.15
451.98
369.78
415.71
417.72
3254.47
526.46
518.90
519.91
603.63
530.53
597.49
588.86
539.31
618.31
686.84
593.65
697.48
1242.72
905.05
694.37
566.13
457.57
447.90
380.80
484.72
456.03
489.29
427.21
502.81
487.94
643.90
551.36
678.92
671.54
774.28
624.24
435.59
470.75
661.98
657.09
369.61
443.96
3141.17
633.29
744.42
699.53
736.46
644.68
693.61
580.92
558.25
525.12
539.76
534.88
528.93
1178.65
576.86
527.66
671.74
585.11
550.31
462.03
536.19
418.16
409.62
465.37
637.57
629.21
719.40
530.94
469.76
280.37
387.05
480.91
728.73
648.16
680.39
521.98
573.61
468.87
3329.99
391.24
436.73
411.39
471.42
518.65
449.59
384.33
518.61
459.61
521.51
448.87
416.39
1072.63
641.73
616.15
762.72
702.48
676.09
600.16
551.08
468.70
424.72
422.97
398.68
513.86
656.62
572.32
620.66
542.74
626.67
602.87
665.38
659.00
753.90
724.97
728.99
710.63
3044.79
647.69
612.39
562.53
597.58
508.75
563.27
491.67
470.14
366.49
410.21
371.03
398.04
981.90
461.86
500.56
512.87
407.57
527.85
453.13
444.63
420.19
420.09
446.64
710.86
859.42
1034.28
815.40
699.00
426.98
370.58
423.69
621.16
713.24
713.57
588.50
542.54
512.50
1735.70
496.86
508.03
455.30
477.29
486.12
528.87
341.87
528.88
476.68
519.40
474.56
539.74
680.23
873.99
856.47
901.93
534.07
396.86
369.33
421.07
437.26
440.18
444.83
532.77
3071.51
537.18
510.66
700.69
676.96
701.95
642.83
609.78
459.30
579.80
494.99
628.57
521.39
1081.16
634.12
590.06
537.67
555.53
454.36
448.51
324.95
353.51
413.68
482.99
412.07
586.13
643.57
596.25
456.05
493.73
456.99
653.06
610.07
648.02
594.43
782.93
937.11
1182.93
2342.92
674.21
345.94
333.15
511.95
431.70
366.01
411.92
336.26
384.19
358.98
604.10
523.95
624.13
476.66
476.63
394.51
388.83
316.73
423.74
295.75
496.87
506.26
527.06
494.80
3223.14
580.95
629.45
597.72
636.89
601.83
564.46
557.34
524.72
528.11
611.58
600.77
683.08
1009.95
627.49
518.45
467.31
465.18
495.54
501.09
592.34
527.27
619.21
572.56
554.65
530.47
656.72
557.15
532.60
586.19
649.72
666.49
774.78
637.03
622.68
415.13
434.58
328.06
3105.45
505.64
516.96
519.25
605.20
561.69
592.15
535.87
597.65
526.62
552.98
530.47
486.04
1155.42
545.30
444.95
461.33
441.39
537.85
407.78
422.81
445.74
485.83
523.19
465.66
505.30
711.03
554.94
681.55
673.27
770.09
714.92
731.25
433.22
471.96
380.67
374.64
411.90
3112.21
675.30
716.81
658.27
658.19
566.84
611.80
519.70
634.72
513.00
457.28
525.66
537.08
1032.61
653.69
560.16
548.77
483.25
513.37
425.90
523.89
385.29
463.79
613.44
581.87
613.79
730.03
625.23
648.20
546.54
710.41
879.20
1083.76
1020.89
815.71
430.88
1209.32
1551.33
1273.61
407.35
493.91
800.45
1036.45
1026.65
1050.02
705.02
534.24
394.99
478.22
333.10
548.00
410.78
492.70
359.38
395.62
414.39
460.75
423.56
636.38
419.36
398.80
417.00
3219.84
375.33
490.57
527.93
653.36
644.34
729.48
671.50
802.08
832.41
775.09
444.92
485.93
1298.15
405.23
587.85
819.86
706.85
626.41
517.05
578.46
594.82
562.59
495.75
461.70
432.24
478.46
397.50
517.98
524.82
556.92
545.32
598.54
632.75
692.43
599.39
613.90
579.01
3006.11
768.04
779.19
701.28
816.02
619.81
583.46
465.23
456.25
336.94
412.03
407.34
410.60
888.10
391.79
430.67
414.38
460.90
495.52
587.37
631.08
525.96
526.61
529.04
618.12
651.06
837.27
590.79
629.92
612.59
499.86
431.80
407.63
410.49
490.34
497.65
757.90
801.32
694.00
516.42
422.23
316.14
406.44
521.85
656.17
576.61
560.33
677.52
777.72
607.94
428.65
3108.54
398.11
416.97
591.77
465.36
482.25
486.68
697.49
519.20
524.99
485.34
438.04
375.86
952.64
446.82
574.76
508.22
663.97
576.60
820.06
743.04
619.25
441.24
546.64
497.22
506.82
520.14
544.88
387.20
485.57
413.70
529.64
524.63
677.12
701.73
862.20
714.78
606.87
433.54
501.37
442.44
650.82
743.52
948.44
814.00
968.61
874.81
673.56
439.77
477.54
710.28
1026.79
367.11
901.02
1004.04
1227.21
833.45
569.30
556.07
424.23
783.89
1140.62
845.17
1794.77
397.21
466.40
621.89
506.72
591.89
531.32
522.15
492.71
371.62
424.20
528.86
652.50
701.53
672.95
763.85
718.58
416.67
392.78
466.68
403.97
377.22
422.44
511.35
679.50
2878.54
1022.13
894.91
793.63
563.00
481.56
360.47
412.81
444.63
433.15
525.67
747.36
728.39
771.04
436.05
459.79
373.28
423.39
422.44
556.10
469.69
571.55
373.60
449.10
428.89
2940.89
562.35
637.06
594.00
595.72
615.26
670.90
679.28
774.35
728.81
857.30
574.15
509.25
833.09
365.56
377.13
470.17
491.60
634.58
467.20
470.45
507.38
484.08
510.22
483.41
464.55
748.05
461.17
556.94
509.11
692.90
593.95
772.66
616.97
655.24
481.72
505.23
455.37
526.79
546.65
501.15
455.88
554.87
459.22
430.02
533.69
535.60
523.78
568.37
499.08
554.59
2894.22
568.28
507.23
538.80
484.13
596.56
601.91
723.79
571.89
602.41
492.14
496.58
393.26
933.76
440.04
439.17
532.96
589.14
513.13
631.66
541.35
679.04
594.62
614.83
555.41
670.16
861.83
732.75
606.06
557.76
437.48
519.11
568.18
656.37
583.45
618.03
679.22
715.39
621.31
709.83
498.36
436.82
539.77
458.51
381.83
489.77
606.96
616.07
537.03
492.78
386.63
2979.75
416.31
536.19
632.44
784.25
709.89
717.89
448.24
448.30
446.50
387.62
490.77
671.67
1270.84
720.54
621.74
631.29
482.39
509.02
465.18
458.33
405.66
544.48
472.96
501.12
380.07
611.34
505.60
609.48
391.96
561.53
551.49
710.41
629.97
670.18
537.18
624.92
545.56
2842.65
782.57
675.06
430.19
615.86
859.12
540.68
461.89
477.63
657.88
830.42
791.08
686.09
1070.63
632.06
504.00
369.35
431.35
712.88
715.35
608.68
503.68
427.29
382.64
415.73
451.87
599.67
577.44
644.02
577.53
714.58
654.09
636.62
657.36
512.60
354.42
398.09
552.39
2906.57
486.93
439.07
345.78
439.50
429.07
425.02
374.58
469.13
525.19
687.04
601.90
726.45
1201.77
650.64
530.13
508.13
481.55
514.55
492.55
619.13
458.38
554.44
437.01
681.56
613.23
768.21
543.82
490.92
479.89
489.31
356.90
496.14
519.66
637.21
572.36
536.66
474.61
2938.92
545.68
564.91
429.72
531.04
472.65
465.90
379.49
534.19
594.48
669.20
629.38
776.89
1240.34
859.84
772.92
759.05
631.20
565.40
453.68
397.97
415.93
514.40
541.55
713.36
664.41
703.38
569.94
582.66
553.30
489.90
431.51
475.58
396.35
587.12
459.45
455.70
400.77
2881.23
524.81
651.81
488.75
543.18
628.35
843.98
663.41
470.75
584.71
469.13
340.35
499.83
955.86
647.64
644.09
896.71
909.73
947.25
460.01
575.57
660.71
435.26
354.90
489.87
1012.68
618.49
583.53
643.09
670.21
673.30
444.69
526.31
509.79
550.35
607.55
614.55
456.50
661.13
607.65
614.94
546.57
530.05
469.45
432.53
442.48
471.98
628.46
759.09
926.60
2907.30
640.20
564.85
433.12
428.36
394.42
548.59
405.67
437.35
401.32
659.82
836.86
883.77
940.09
650.82
480.49
450.31
609.27
396.87
455.27
382.05
516.74
580.97
535.65
518.28
2780.18
549.53
513.96
512.06
438.52
574.52
429.60
442.99
551.78
613.85
611.16
646.50
607.64
1109.13
627.75
632.75
557.39
570.75
506.98
547.61
472.40
580.14
531.10
530.09
540.95
506.02
540.88
526.14
596.41
540.01
425.49
411.56
501.68
526.05
453.33
515.61
487.28
570.74
2747.74
746.60
706.37
685.04
585.03
540.35
392.50
430.71
377.12
488.78
474.83
589.61
554.19
1194.61
653.30
549.48
515.62
681.83
650.58
642.25
391.73
494.48
587.98
676.49
610.52
402.29
447.45
404.65
518.59
585.08
633.82
685.97
476.20
501.96
631.73
714.52
583.63
613.28
2760.51
597.79
522.84
498.06
599.82
605.38
608.58
541.82
416.98
482.53
422.71
644.81
531.78
1045.64
389.31
349.15
539.55
1013.33
980.10
980.98
594.04
510.48
433.95
353.84
412.03
913.64
525.58
750.60
655.39
711.58
529.27
496.60
425.81
485.79
510.34
531.12
471.53
481.76
441.23
653.13
445.95
483.47
639.76
797.87
744.05
661.34
664.08
713.68
556.86
586.00
2717.53
705.10
577.96
643.57
495.12
571.87
503.34
477.77
552.53
437.49
540.87
622.49
772.55
1276.60
764.57
584.10
500.92
338.99
416.46
584.57
376.86
542.44
541.28
650.02
619.98
651.89
694.56
548.20
428.35
499.30
484.20
555.99
488.11
514.08
408.31
434.26
414.64
472.30
2571.36
759.53
759.60
847.13
711.20
545.61
498.32
536.35
486.86
518.95
475.57
389.19
378.18
933.98
459.37
470.57
434.27
556.58
500.68
682.72
737.48
827.07
554.53
498.55
541.06
490.38
413.92
482.20
430.40
549.57
582.75
629.80
593.66
762.63
657.27
665.57
497.07
592.72
2656.60
564.21
576.23
659.30
561.88
678.13
552.82
510.81
487.95
519.84
453.23
451.44
577.71
947.02
471.67
369.22
454.26
558.91
537.93
618.61
480.62
483.09
457.31
589.96
509.34
594.58
656.19
582.11
419.49
636.37
723.77
675.59
443.35
779.35
376.25
535.88
598.75
654.99
2587.83
736.24
711.22
853.11
927.79
1252.84
1126.48
1145.26
708.70
442.55
925.57
1067.65
1292.21
445.48
373.42
432.08
560.66
585.75
590.05
528.72
639.40
682.23
487.48
565.22
2645.32
609.75
478.69
581.70
551.85
676.01
642.92
586.12
494.28
520.63
486.51
590.63
597.38
1128.06
524.76
596.96
585.49
557.78
514.37
538.91
573.26
767.36
666.41
729.99
578.10
458.51
474.20
467.41
423.35
431.00
469.50
610.32
451.38
453.04
445.20
526.46
553.13
623.64
2604.04
674.07
437.59
468.25
547.70
544.31
525.76
595.17
676.09
679.04
627.54
785.07
694.50
1223.52
490.85
398.82
423.99
462.32
524.92
720.75
755.52
900.11
788.71
738.62
636.02
612.06
629.08
757.65
706.39
649.57
401.83
462.73
379.45
362.38
396.74
376.14
419.99
492.36
2545.29
546.12
607.42
633.53
608.15
617.03
584.59
623.16
604.95
598.81
554.89
668.27
546.17
998.83
515.90
520.57
399.38
510.84
406.22
431.75
388.76
482.92
521.37
639.84
681.29
752.34
886.92
635.49
419.49
430.10
547.48
738.78
861.50
894.21
485.70
453.07
398.26
395.61
2541.32
729.90
621.05
629.80
507.24
451.59
475.98
529.44
443.29
497.17
576.26
633.40
478.00
1057.02
608.13
771.41
630.40
659.67
463.67
450.40
450.01
456.14
409.35
466.62
457.40
546.88
529.47
570.84
555.85
699.39
534.91
658.45
557.31
632.43
543.48
657.02
573.86
579.38
2470.06
604.14
517.00
473.53
515.78
474.77
427.67
496.11
453.24
508.25
435.11
531.46
463.91
1081.11
582.26
646.03
671.14
754.25
749.60
763.01
643.44
596.45
522.16
477.98
469.41
583.51
743.51
790.57
554.26
580.70
420.88
437.97
396.76
453.59
468.47
538.89
488.35
567.81
2511.28
763.45
576.27
452.84
510.55
544.16
494.44
655.61
650.54
796.33
556.14
483.67
363.97
913.97
456.57
632.71
529.01
574.22
716.74
708.87
605.00
769.18
673.77
766.49
688.67
786.01
808.45
759.37
698.35
794.17
766.09
836.69
641.80
488.98
409.29
484.75
383.53
488.00
2466.91
581.65
466.73
460.22
382.11
512.69
489.46
628.76
458.29
429.58
435.44
402.90
474.46
1018.18
467.61
625.87
608.82
679.97
559.13
589.03
485.82
499.37
487.92
609.31
548.64
464.80
560.18
502.34
485.24
556.27
521.06
574.70
495.80
528.87
496.04
541.45
558.61
839.85
2559.11
1010.14
808.89
718.06
482.56
450.23
387.42
447.36
409.57
450.85
363.58
503.90
520.95
915.41
797.12
942.70
770.87
831.87
849.55
857.58
774.27
821.12
658.11
523.20
487.92
2030.63
477.99
458.35
372.45
655.34
788.86
744.61
627.22
318.00
485.63
529.53
533.24
628.05
890.86
796.46
648.92
681.04
504.99
464.75
463.45
637.43
513.30
537.19
549.54
629.09
2511.71
585.81
545.03
547.70
504.21
685.03
624.71
693.29
601.58
618.44
513.02
559.45
490.75
1117.52
539.52
594.73
467.45
634.13
612.58
749.01
720.42
845.16
747.15
592.54
482.39
469.74
485.51
550.26
680.38
487.77
386.55
427.30
443.50
544.81
579.83
848.44
821.94
916.61
2445.31
505.11
452.71
476.50
387.21
526.83
462.35
711.91
690.51
767.69
527.65
421.41
560.28
1272.33
930.45
1007.81
960.85
1012.96
757.09
605.12
523.98
435.31
470.05
497.22
487.17
667.30
429.79
406.41
447.13
556.11
440.47
422.90
402.28
596.12
519.86
580.19
514.60
524.54
576.03
603.67
506.50
564.73
596.85
789.84
640.84
713.71
593.98
656.11
602.13
589.08
2455.14
673.40
565.00
699.29
680.12
727.04
617.25
605.77
429.52
580.03
651.47
874.21
679.84
1099.21
460.83
461.81
409.47
466.55
412.79
472.13
556.35
716.41
637.85
725.62
606.41
554.92
566.91
597.38
584.54
747.24
749.39
728.21
493.96
512.76
446.81
516.51
362.28
407.31
2480.39
446.00
434.43
469.61
462.54
433.38
371.04
488.89
407.48
562.63
460.22
574.70
492.70
1079.42
557.08
533.17
540.43
630.85
534.61
567.74
606.42
634.17
559.92
660.13
609.38
665.88
668.71
680.08
711.99
604.89
428.86
531.46
497.25
675.68
602.48
642.38
539.38
611.00
2382.84
634.30
599.56
578.28
534.31
580.02
508.38
605.79
702.04
685.48
501.31
474.50
375.60
959.28
438.43
508.38
570.68
641.36
604.78
698.25
476.62
455.15
381.30
531.58
514.37
701.72
728.76
651.77
564.78
588.70
439.68
578.49
824.50
1104.65
1112.44
905.25
421.76
817.58
1315.14
354.61
640.91
828.73
832.31
811.10
802.23
699.89
550.73
622.50
628.69
757.46
601.81
683.71
494.45
497.05
385.89
485.79
410.45
489.10
539.70
445.84
489.05
586.08
550.42
2340.08
594.49
521.57
543.88
649.97
526.03
615.78
659.50
728.37
586.15
836.52
826.53
827.61
1217.27
641.52
496.47
403.26
520.12
916.68
613.35
435.89
534.03
612.50
605.20
689.28
630.38
746.31
568.43
637.57
608.51
625.24
628.93
678.37
531.59
469.20
434.64
457.94
416.74
2356.38
480.33
653.26
523.64
615.21
518.79
564.18
610.09
580.42
554.61
699.97
659.92
698.36
1027.59
579.53
518.76
429.94
438.76
450.06
416.95
446.26
508.23
608.06
556.19
560.53
607.99
746.66
662.08
747.90
677.51
749.33
635.17
512.06
516.34
681.32
601.28
652.39
641.58
2418.05
640.28
670.93
527.65
519.82
406.92
461.03
408.79
337.87
473.80
465.67
443.19
512.83
1050.45
565.38
580.26
735.60
683.01
744.53
624.20
719.82
450.43
530.21
451.50
503.02
515.49
621.73
553.42
620.46
600.07
635.50
555.95
570.38
468.45
506.79
451.14
475.65
468.80
2274.87
683.24
781.84
745.45
758.71
418.11
404.51
401.35
455.70
558.65
736.53
710.48
834.18
1242.04
726.16
482.68
699.05
660.38
776.80
640.72
593.65
495.94
550.40
401.24
398.36
383.58
525.97
476.48
496.27
511.22
606.49
597.77
649.28
589.47
653.32
610.74
691.83
641.29
2332.54
504.45
508.55
541.08
742.09
839.66
852.32
678.23
560.49
430.73
490.71
546.10
624.40
802.01
639.48
578.78
736.17
642.55
665.89
556.78
507.46
409.65
428.71
485.12
381.01
403.31
567.15
686.51
511.42
354.53
491.89
552.71
647.80
677.65
689.77
615.52
686.63
566.43
2277.92
679.34
731.29
636.23
759.36
652.91
566.54
324.53
532.69
384.16
565.77
472.07
512.06
899.76
436.74
649.32
666.42
619.47
747.23
692.45
729.22
732.21
854.05
866.37
730.18
539.02
588.10
404.38
426.04
423.02
584.76
505.71
575.89
539.10
634.26
548.26
657.69
573.42
2241.79
506.65
583.02
493.38
607.58
505.60
602.12
474.87
627.22
613.99
704.90
598.52
590.69
1034.82
498.14
418.72
523.23
424.47
521.22
440.81
582.55
495.55
677.44
604.82
653.17
641.07
845.75
710.80
743.64
579.72
487.01
503.61
532.10
443.74
581.43
553.10
695.87
615.90
2361.06
638.88
799.98
754.41
878.21
720.09
727.48
591.43
547.34
406.55
380.44
413.56
483.87
1020.10
619.75
558.02
644.10
631.60
436.02
412.55
466.68
380.05
668.65
725.30
707.36
584.18
821.53
643.49
713.38
587.63
564.20
455.48
475.45
427.63
464.43
382.20
603.16
645.93
2309.09
762.44
679.91
482.14
486.65
485.71
637.70
510.91
379.46
373.01
495.98
667.21
940.43
1228.52
619.82
472.82
582.14
449.89
579.27
605.01
607.11
396.93
544.84
559.68
450.87
2074.17
717.35
370.22
394.62
458.54
391.13
478.98
833.12
925.08
1005.38
921.15
846.94
571.64
527.11
454.76
491.19
471.78
539.14
554.97
621.33
500.30
575.49
576.14
688.05
639.96
2129.86
658.15
432.52
546.98
387.68
335.57
402.24
410.63
512.77
541.01
534.83
449.73
635.76
913.33
767.41
630.84
744.65
615.55
770.78
659.31
934.01
842.80
904.61
710.86
680.61
2142.87
440.95
404.26
411.66
408.30
427.09
422.21
382.89
392.78
461.84
475.73
609.10
551.22
1252.16
701.39
684.58
596.58
669.17
636.58
609.58
564.61
640.48
567.48
590.39
683.84
867.04
921.98
883.12
676.79
722.30
542.71
586.49
467.69
554.61
525.12
565.10
498.93
494.29
1619.43
462.13
423.90
387.56
465.11
648.08
566.44
695.94
515.14
589.30
569.50
567.36
436.27
685.15
487.75
565.15
437.31
572.65
605.85
665.79
537.35
599.94
550.47
603.69
413.01
589.86
682.82
708.46
822.77
1023.99
882.11
710.12
443.38
403.69
526.19
515.15
344.38
413.12
1569.67
408.66
390.15
413.40
502.35
681.11
677.86
716.32
586.56
678.19
605.05
658.26
553.34
817.79
640.39
720.05
623.30
756.95
757.94
849.62
686.27
416.89
618.18
429.03
416.73
810.75
1210.53
1455.83
1446.87
1266.32
731.49
394.24
932.25
792.19
418.56
379.52
330.79
2114.64
469.73
621.78
538.18
680.19
516.30
616.06
587.46
730.19
740.18
800.45
700.33
690.60
1121.59
558.07
401.42
397.47
360.04
496.31
494.75
458.81
340.65
494.76
470.04
592.95
427.49
648.04
527.21
682.07
552.96
634.95
549.96
667.78
492.16
559.27
479.98
596.00
561.95
2158.94
775.14
844.46
648.84
591.77
489.12
560.55
411.24
513.99
471.70
575.07
472.08
504.55
958.33
362.98
424.01
670.31
553.31
557.07
425.50
488.34
475.95
538.13
457.66
606.60
511.61
787.42
569.01
615.01
518.07
626.34
589.12
716.50
648.28
740.45
603.01
556.25
497.22
2059.84
486.13
458.85
444.57
554.05
551.67
466.79
352.37
405.39
377.59
455.36
457.91
564.86
1182.04
684.42
593.67
592.35
542.45
610.08
603.58
647.70
597.71
688.55
626.61
622.37
600.89
595.71
461.02
669.82
618.73
539.23
488.19
650.26
617.67
696.47
644.93
788.86
695.78
2219.91
620.53
405.13
340.32
492.19
361.66
555.14
489.24
607.47
479.68
511.46
381.04
388.77
937.71
398.27
421.07
574.87
485.46
593.70
532.39
627.65
628.64
797.50
734.83
742.22
369.69
457.30
337.61
442.60
552.29
724.65
625.59
676.78
543.11
723.33
546.98
669.28
502.93
2077.61
414.83
524.78
685.72
1104.31
1001.76
1021.11
740.20
830.76
587.30
474.93
657.11
2969.33
1309.48
846.98
328.13
579.26
728.25
862.66
820.52
910.07
729.25
689.01
625.30
708.55
735.17
570.06
498.20
522.63
506.69
623.21
539.41
523.44
484.48
664.54
663.35
711.03
578.26
675.29
480.19
401.88
398.10
486.73
559.55
606.29
486.44
546.09
452.76
471.09
462.72
1954.05
509.96
605.88
621.32
492.14
350.44
511.99
481.59
632.61
640.50
852.53
907.22
931.07
1277.94
652.97
517.13
602.53
460.04
503.30
515.91
600.57
471.86
440.90
390.02
322.48
1774.05
363.45
348.05
430.15
475.93
558.82
572.03
488.07
467.54
478.76
524.82
497.49
461.28
1062.45
604.48
673.04
582.80
738.32
642.24
790.54
729.88
714.53
443.71
487.67
338.66
380.62
567.41
631.14
627.90
692.82
542.82
711.10
583.12
520.30
274.20
352.77
385.96
632.38
1877.89
898.95
781.60
708.83
576.80
517.84
454.57
588.50
528.87
505.18
452.21
591.59
530.01
1113.31
466.65
585.33
481.44
568.59
541.78
610.27
514.83
554.23
455.36
626.73
696.31
783.24
809.12
714.54
471.01
285.21
412.69
367.69
433.00
677.81
579.95
439.71
435.30
319.06
1740.21
616.93
619.89
752.27
531.16
577.79
548.22
568.35
506.94
615.62
653.99
824.51
650.27
1259.03
662.10
455.26
390.60
520.21
720.40
824.69
794.31
755.37
521.38
401.69
468.00
740.13
1068.44
1048.60
857.70
502.25
416.71
411.16
506.88
618.98
547.15
604.13
359.95
364.05
996.92
366.61
284.45
412.22
435.59
381.38
427.95
435.54
490.84
586.41
410.46
561.03
428.91
644.68
645.04
682.31
654.14
720.65
627.22
592.24
527.38
574.41
548.44
612.99
525.85
1825.73
592.77
732.30
604.05
698.80
618.39
571.12
423.71
496.51
448.61
633.56
575.77
652.18
1172.82
694.90
572.64
675.98
539.28
664.79
480.27
321.59
311.24
458.19
410.21
350.96
434.59
655.23
601.09
762.17
754.33
706.77
455.92
491.62
390.81
397.11
371.64
445.78
439.03
3408.31
584.86
698.47
585.54
613.81
538.60
599.93
509.70
576.24
425.50
577.73
519.36
660.14
1179.70
696.49
550.71
712.02
726.38
781.22
751.91
751.04
629.73
589.26
474.46
597.53
646.60
769.20
726.91
745.68
445.27
350.07
464.39
821.29
833.22
423.33
422.81
508.80
420.19
3470.46
581.42
642.35
552.27
657.52
582.39
632.56
517.96
594.99
534.55
503.08
557.51
640.10
1223.99
725.48
715.89
833.33
578.92
659.23
593.12
661.33
577.88
524.73
404.04
505.65
549.79
795.71
627.18
492.09
405.41
520.81
544.99
679.51
537.59
656.76
318.88
379.20
465.46
1703.13
689.21
770.66
541.66
549.97
500.64
465.03
380.98
442.49
452.36
685.82
597.26
666.17
1096.43
682.33
595.44
766.74
777.79
623.66
529.62
522.88
536.33
666.74
657.69
519.61
361.46
474.40
456.82
613.86
544.49
561.66
552.21
608.78
538.52
552.38
548.51
598.29
554.47
3404.06
559.93
427.36
412.43
544.42
361.40
420.44
580.75
647.59
695.85
586.85
458.62
569.10
1115.09
710.99
601.34
723.11
635.99
685.76
581.98
656.12
501.39
526.94
458.14
541.25
374.74
586.84
492.78
509.13
510.24
605.59
517.69
743.15
632.78
522.88
424.84
514.34
572.45
3185.57
664.06
655.77
506.50
524.34
559.65
527.41
558.80
541.83
488.46
465.85
452.82
561.09
1064.27
414.29
417.15
578.92
560.16
896.09
931.11
850.56
477.25
483.56
596.30
663.99
1142.97
362.69
570.39
357.06
359.21
595.31
583.08
796.76
655.98
662.10
497.98
504.48
315.15
471.83
350.19
308.83
333.80
401.40
529.31
735.71
862.95
808.16
726.53
819.79
597.45
3438.82
515.09
507.14
453.62
492.76
356.24
395.57
394.94
445.70
453.07
599.42
603.83
644.09
1247.67
809.67
685.31
800.49
530.12
594.48
359.96
361.09
337.00
470.96
387.91
499.82
490.52
967.64
862.57
942.47
707.15
425.21
382.99
475.54
641.69
669.16
426.05
360.95
373.29
2231.06
477.79
634.29
623.80
676.80
582.48
577.45
477.77
475.93
433.73
486.32
404.32
498.11
684.02
649.79
504.93
779.20
789.09
846.22
681.09
833.56
649.52
529.41
385.23
426.85
549.88
767.84
611.49
531.17
476.59
414.81
424.71
430.58
383.38
564.44
510.96
680.11
567.94
3592.42
416.73
510.69
502.68
590.19
588.86
704.89
715.31
781.73
699.50
745.34
472.34
439.14
1106.88
813.90
757.62
858.43
813.01
542.23
752.67
1228.48
885.18
520.60
719.12
888.41
1760.91
763.01
493.76
486.09
448.71
568.21
534.51
599.98
428.84
553.25
586.52
671.67
652.06
897.52
679.23
682.70
399.26
456.96
330.34
344.23
357.51
482.04
436.73
529.70
556.62
3462.57
593.80
655.77
603.71
635.77
515.18
556.61
509.90
530.37
501.49
636.54
593.61
680.73
1177.31
600.72
485.07
558.94
539.95
626.91
653.81
682.28
350.15
364.48
487.68
380.71
493.17
725.81
589.18
525.54
468.11
453.53
454.63
554.76
538.63
531.99
446.65
576.86
705.90
3317.78
1175.64
1289.53
887.11
769.99
338.07
446.10
371.02
394.64
428.45
406.24
371.07
438.26
536.32
469.88
377.67
391.13
423.73
553.40
584.43
657.72
599.62
551.89
431.02
376.62
1162.59
783.29
748.98
794.47
822.58
805.66
568.70
638.52
504.29
540.06
394.15
518.79
499.82
898.46
469.66
507.20
479.25
570.77
507.45
627.38
616.28
691.25
615.88
849.41
794.43
921.35
769.04
711.28
364.09
392.99
373.57
399.01
349.75
384.03
433.48
530.88
558.96
669.47
1181.43
714.78
604.00
483.49
394.46
582.93
458.44
517.47
372.24
539.78
598.62
598.45
508.76
758.41
560.80
369.83
350.20
489.13
470.05
533.11
492.58
714.46
728.02
779.77
829.37
870.46
942.06
874.49
750.17
590.62
256.78
400.16
355.70
418.24
478.89
659.06
571.84
668.54
1232.93
663.81
539.71
627.99
547.20
591.52
511.29
559.17
596.51
841.14
775.68
813.93
450.56
964.48
740.68
352.05
552.96
724.81
512.10
603.92
804.07
916.18
661.08
708.20
563.57
3389.77
538.64
500.28
377.84
529.22
332.03
302.90
413.62
410.01
440.61
503.63
581.91
791.22
1244.44
470.53
383.00
327.40
451.62
663.89
469.48
548.16
476.20
582.34
564.30
476.04
316.97
560.73
695.02
856.17
711.11
781.43
497.11
395.91
473.83
683.90
705.42
721.99
520.44
3397.29
448.19
428.43
484.78
553.71
419.76
446.62
395.59
492.19
491.83
598.30
573.36
766.68
1207.45
796.02
527.14
402.99
316.92
465.42
477.70
678.77
603.68
664.65
642.43
687.92
647.61
676.69
552.38
689.67
592.37
626.26
555.60
619.58
551.86
551.31
523.35
658.01
476.43
3380.73
545.76
559.47
395.99
344.40
354.90
417.28
393.32
508.20
551.71
647.09
655.96
641.02
1179.89
527.81
396.75
503.98
442.10
555.99
641.81
674.15
516.31
517.58
558.35
725.22
580.53
877.82
682.82
701.39
487.28
401.66
462.70
351.74
379.20
525.88
539.27
527.94
489.43
3270.68
613.90
677.12
596.84
641.52
588.67
563.09
456.41
462.41
433.54
660.09
558.93
625.06
1114.94
518.15
451.97
561.83
466.61
639.62
665.96
773.53
622.65
678.51
486.89
561.13
521.81
637.21
465.51
525.47
383.40
521.15
660.36
783.06
812.31
880.61
678.24
653.34
384.92
3655.43
699.65
373.75
430.49
583.23
435.53
449.51
436.00
564.75
604.92
661.74
492.71
587.05
1240.72
715.74
501.00
579.02
535.61
641.33
568.32
591.51
414.04
342.94
360.74
495.63
558.79
789.35
754.81
799.00
636.10
650.78
504.93
472.09
413.04
498.06
387.49
365.15
373.79
3326.11
461.80
556.05
497.73
630.70
624.78
625.97
424.20
493.04
418.99
491.92
380.99
446.28
1044.84
464.96
482.44
598.80
528.09
565.59
641.65
794.85
638.02
543.77
470.98
597.49
566.45
738.21
752.52
953.14
1007.24
976.68
449.02
649.59
1081.31
514.32
398.82
677.49
686.21
832.36
676.49
696.67
692.24
777.33
692.32
666.04
481.93
402.14
427.00
350.99
405.86
3088.63
618.09
705.02
591.22
577.36
471.46
510.52
412.80
479.76
402.77
505.94
515.19
538.33
1275.60
593.36
582.49
571.98
533.10
769.08
754.73
898.55
828.09
609.50
515.90
423.55
3138.68
502.46
495.89
533.94
443.01
448.17
427.08
348.43
503.59
576.77
548.44
492.29
466.94
905.67
417.02
534.90
488.16
703.12
633.23
631.18
640.87
632.25
563.25
623.60
420.06
457.45
505.11
590.16
638.94
554.26
521.86
638.49
411.17
519.53
490.14
549.60
499.14
660.19
3061.96
577.78
564.82
800.41
620.38
654.81
683.20
616.39
513.58
574.28
483.95
505.10
592.55
1394.67
976.40
744.86
362.04
428.44
446.87
473.66
476.41
441.32
462.61
520.75
554.39
3220.26
390.73
342.87
510.86
464.85
334.91
551.83
641.32
669.06
497.69
414.77
421.93
639.75
1226.55
973.33
668.38
639.12
549.40
710.25
628.42
687.87
549.37
518.91
390.63
604.56
2978.20
584.32
477.76
438.21
424.49
561.70
467.20
589.78
454.12
402.61
297.22
387.86
400.84
1069.64
746.73
781.74
485.12
393.92
623.61
455.39
566.02
809.99
793.58
874.34
624.45
677.25
713.44
682.40
603.11
596.23
609.19
692.98
527.86
593.38
552.83
575.27
503.28
529.29
3103.12
572.67
580.26
678.87
505.48
557.65
433.45
617.41
624.47
676.53
543.69
672.93
538.21
1003.93
541.03
701.44
583.12
729.79
718.97
830.01
552.87
453.89
487.81
660.09
710.86
480.77
433.90
467.40
377.25
572.07
387.44
535.44
442.56
497.92
473.39
657.81
536.06
628.28
3034.27
653.22
520.36
597.19
482.95
684.99
673.75
907.06
863.73
941.10
694.47
592.59
370.27
509.57
460.32
446.35
530.86
594.68
575.50
621.26
507.00
674.48
498.81
602.72
526.98
3085.03
627.33
650.28
589.07
609.89
392.97
392.05
368.97
480.87
528.31
503.16
458.40
450.73
1029.96
550.04
378.60
561.85
572.13
649.19
608.15
695.84
637.30
700.99
606.28
674.29
569.75
825.13
725.19
700.98
494.41
464.60
316.74
433.58
351.67
404.37
393.24
548.36
562.84
3068.22
753.73
666.14
489.46
490.61
371.29
401.13
394.55
562.22
490.80
625.49
584.17
730.52
1104.49
739.61
653.06
796.03
720.64
828.27
652.78
552.58
589.22
661.87
368.36
588.91
709.08
877.31
585.73
562.81
372.15
538.96
455.64
579.78
484.10
518.69
594.49
703.44
578.23
3072.65
471.75
572.59
469.55
496.60
398.26
574.34
460.61
445.34
549.30
576.66
363.92
449.09
1093.18
823.06
823.49
934.41
803.48
850.31
551.91
512.02
399.89
451.05
413.77
526.84
2927.91
827.00
798.40
812.19
608.31
636.58
532.15
581.54
475.35
508.56
422.72
488.94
415.04
1020.32
469.11
443.27
344.10
405.86
375.73
497.87
547.98
682.71
631.22
648.59
443.93
477.86
559.22
558.97
583.70
738.75
633.99
588.03
432.25
479.30
364.14
599.48
478.20
527.34
2984.28
556.17
462.44
485.80
440.60
487.68
543.47
607.76
582.38
557.16
666.75
841.91
814.97
1241.44
651.53
502.62
394.62
417.19
353.40
409.17
403.09
582.77
434.86
547.79
418.39
555.39
681.15
769.57
592.20
631.59
398.36
467.51
495.50
435.65
437.69
468.42
475.51
550.07
2948.90
600.95
563.02
632.03
567.50
629.48
506.75
455.41
470.80
582.29
621.17
893.32
978.36
1313.86
666.88
491.18
595.27
490.92
369.04
545.30
570.44
651.44
536.91
572.32
598.04
2954.89
779.59
730.31
588.71
474.07
366.48
516.68
552.79
560.15
461.97
565.60
559.39
714.27
1137.44
679.57
552.41
469.60
413.65
501.85
395.62
492.17
511.79
620.29
537.51
588.45
390.38
509.25
422.46
691.17
751.38
887.17
686.27
636.88
478.46
408.60
380.20
387.79
352.27
2392.11
384.31
656.39
641.60
678.45
571.42
475.13
470.51
516.24
403.60
511.06
701.75
774.46
936.33
844.97
712.99
831.09
780.03
959.08
811.35
724.68
481.82
492.49
351.42
437.13
1870.47
454.40
350.14
509.25
458.33
576.08
471.42
564.23
504.91
634.34
494.92
521.23
436.88
650.73
456.21
702.53
745.76
1016.78
706.86
497.74
357.49
354.69
379.86
373.63
411.76
3038.86
634.37
697.60
485.02
554.16
461.91
572.43
553.96
640.95
509.74
584.10
519.50
662.09
1072.64
734.26
575.10
563.06
419.97
495.94
450.95
519.07
464.44
566.16
612.24
621.82
560.38
698.08
526.12
586.80
494.61
692.73
840.12
1112.58
888.24
529.91
972.95
995.17
524.95
720.49
527.09
683.48
680.33
835.37
721.50
825.02
604.26
558.58
433.63
654.84
587.84
563.00
632.67
535.55
395.32
388.37
402.11
456.23
431.63
506.86
421.51
561.54
441.65
598.35
2845.88
635.16
535.66
646.91
546.33
618.61
443.12
488.16
561.68
576.24
451.08
557.47
596.09
1204.71
612.47
609.50
408.08
566.46
661.52
689.71
606.90
557.51
422.36
454.30
458.87
563.84
588.27
580.88
644.99
713.57
615.57
758.55
723.61
775.44
571.42
524.52
397.85
502.76
2839.17
453.55
348.55
471.87
489.10
637.40
508.16
540.42
479.55
532.57
539.17
468.50
483.20
1275.98
695.83
720.07
606.14
779.13
717.95
892.55
780.66
930.92
711.52
657.00
398.25
416.65
396.17
488.04
409.76
645.64
476.70
588.14
609.86
600.41
441.96
523.99
456.30
551.65
2857.35
577.68
571.81
668.16
546.93
561.46
438.86
539.05
492.38
797.66
776.68
790.51
513.42
1055.63
589.61
707.54
813.77
1072.28
781.62
495.55
882.07
940.47
585.56
446.07
378.58
2357.27
409.87
664.63
769.70
927.66
680.60
688.13
572.43
561.38
475.19
553.80
364.56
454.16
656.46
537.79
467.31
539.56
463.80
573.76
574.14
646.77
553.11
727.20
399.07
517.63
494.13
681.44
580.39
632.02
577.42
612.67
531.75
543.93
325.97
391.33
415.56
432.33
425.16
2898.17
553.62
673.98
632.88
773.43
720.05
829.02
591.40
603.26
424.89
542.30
407.20
477.74
1004.70
651.03
548.58
658.14
654.20
689.73
501.21
435.31
400.15
460.67
448.07
449.51
382.20
580.47
528.16
679.85
515.39
516.26
386.72
536.38
502.40
691.13
620.80
672.09
509.76
2855.45
615.01
800.31
874.72
787.53
560.47
682.03
464.44
433.89
367.18
414.71
441.69
497.02
1100.93
678.78
495.45
576.84
470.42
544.17
435.47
620.34
583.92
653.50
595.25
585.02
377.87
585.70
480.07
598.22
536.26
594.55
546.33
650.73
634.52
755.50
627.06
691.19
624.17
2867.26
327.34
422.78
415.55
489.37
473.16
689.79
659.23
820.44
663.64
650.21
567.99
637.56
986.66
462.20
394.96
401.00
399.42
509.93
734.30
1143.33
1003.46
814.91
476.04
382.56
1827.43
824.06
694.29
672.60
490.70
487.18
439.91
432.81
447.71
423.28
437.51
605.15
528.62
871.99
490.90
504.11
369.37
567.89
495.80
636.91
553.18
711.93
589.36
664.08
576.24
640.87
622.59
529.25
465.61
552.37
413.38
526.22
414.44
539.22
474.34
556.48
521.87
600.42
2695.26
564.70
404.27
509.78
460.08
624.70
596.62
683.83
692.88
722.39
449.91
404.74
368.56
932.89
396.78
504.45
561.73
719.29
609.46
562.46
541.68
635.17
666.51
721.50
638.81
554.78
405.77
443.41
408.23
416.91
402.98
498.83
454.83
628.51
522.96
562.71
524.27
606.98
2675.24
488.54
419.95
462.40
506.66
591.05
558.78
714.56
668.41
713.69
497.06
592.88
466.11
1135.30
590.41
649.48
620.89
664.74
618.44
740.91
810.01
854.35
695.20
529.80
414.01
463.58
503.72
512.68
507.79
585.46
638.31
662.60
643.49
691.71
592.23
676.67
559.28
581.31
2647.18
408.80
374.36
469.59
358.22
482.98
505.83
548.72
594.73
621.65
525.17
651.23
592.76
1036.95
478.49
587.04
605.44
709.06
612.21
587.85
428.39
502.33
330.85
571.84
620.24
699.19
699.44
658.67
509.57
629.93
451.62
583.87
459.56
669.85
582.35
787.53
814.96
760.57
2639.90
531.05
458.73
473.33
522.69
762.70
725.11
814.78
854.23
973.25
718.65
901.61
653.29
569.11
564.87
789.11
623.36
453.68
492.66
644.41
590.91
625.82
555.39
692.89
669.48
2733.42
647.34
696.58
507.08
621.85
648.88
677.32
632.10
658.28
451.15
545.40
491.03
533.27
938.97
466.34
479.24
451.52
388.17
410.74
377.06
523.60
481.57
552.61
505.85
549.64
568.39
698.94
623.55
648.77
599.60
668.64
575.78
558.81
451.40
529.19
526.92
526.61
549.21
2749.54
749.23
897.64
597.38
618.77
449.62
387.29
423.72
549.78
457.66
588.87
594.32
774.48
1295.32
937.14
796.89
646.84
481.43
527.08
428.27
479.90
420.19
393.52
398.44
626.07
2623.96
672.61
482.60
480.84
478.25
643.40
674.98
814.10
682.94
625.32
548.27
424.14
848.98
1502.01
654.50
431.23
399.69
575.48
429.32
528.84
442.81
596.12
599.32
712.56
606.43
2609.18
656.26
705.60
531.72
509.95
542.06
608.48
689.75
843.51
691.47
655.66
438.13
423.62
968.32
544.11
450.56
646.14
722.47
904.54
603.63
501.07
525.03
605.76
495.01
489.58
517.37
810.58
493.60
751.06
831.08
716.00
585.19
576.31
471.31
518.60
501.70
633.37
500.25
587.51
582.79
584.00
534.30
598.62
493.52
598.85
573.29
667.13
643.37
766.35
648.05
447.27
2777.42
485.02
578.37
831.50
901.73
1223.90
1151.24
1029.96
841.12
593.58
640.64
848.44
2411.74
659.95
482.71
444.72
562.13
595.25
576.64
566.20
438.71
490.24
470.88
616.11
490.28
920.22
581.77
618.14
501.73
561.65
484.14
546.03
577.48
686.06
624.28
663.15
536.68
2636.62
532.50
567.72
533.26
573.93
539.16
633.86
534.82
588.67
509.73
561.25
479.49
480.20
900.07
449.27
466.70
706.83
647.34
700.33
616.78
621.49
505.28
520.93
418.26
562.71
466.79
740.55
590.05
612.56
570.60
686.86
645.50
648.06
536.44
698.24
633.91
686.83
415.04
498.46
476.41
463.35
453.42
721.78
626.96
864.74
724.70
848.15
716.70
779.62
588.87
550.89
1884.64
451.86
396.48
527.65
475.14
556.57
581.88
557.68
455.51
413.97
406.85
566.00
459.99
813.58
493.98
622.55
665.93
679.46
625.78
679.67
591.81
689.64
599.51
695.50
614.07
661.00
608.30
519.28
338.90
446.67
498.76
492.05
541.73
447.98
466.74
753.99
900.00
979.61
2530.12
756.42
458.34
577.47
455.89
400.85
479.35
523.24
497.09
582.78
468.29
447.06
444.36
820.72
678.55
642.89
637.40
645.52
669.07
736.24
709.64
869.60
723.61
704.90
442.05
552.77
480.31
519.19
548.38
668.70
654.31
758.20
677.80
650.74
621.86
609.15
586.29
631.27
2414.15
509.70
549.80
606.60
529.25
487.89
575.30
599.98
548.39
572.39
573.40
557.01
479.88
1077.88
514.41
556.93
519.21
606.84
562.33
524.11
494.96
643.13
560.58
610.86
542.68
592.14
651.79
537.96
515.60
606.07
544.72
607.68
634.65
706.68
635.13
753.11
651.99
647.70
2430.32
762.02
677.58
680.55
551.39
431.75
613.76
507.50
463.74
552.00
517.53
643.34
652.43
1207.29
556.32
542.25
532.39
752.00
575.49
601.18
495.43
513.14
451.79
551.19
403.54
487.48
611.59
656.08
567.12
628.01
568.39
621.65
563.81
620.03
465.50
629.93
571.33
803.92
2461.43
902.92
756.32
699.27
439.38
500.19
437.40
529.88
717.22
1019.20
842.80
937.71
827.44
1024.87
768.26
674.29
447.34
449.40
563.20
682.71
762.78
581.00
392.95
556.18
588.41
2527.42
436.37
461.36
378.06
566.81
533.08
545.10
558.35
746.83
733.81
770.83
595.93
602.47
737.14
637.75
531.28
598.09
510.67
551.82
460.25
697.60
741.76
757.29
707.53
748.13
489.07
654.67
625.30
811.19
774.55
717.08
532.77
659.44
474.38
467.59
364.20
492.95
368.24
2446.08
403.18
474.05
450.59
641.21
638.58
777.59
609.19
663.06
546.12
653.97
537.81
605.22
1008.35
531.19
470.11
621.69
528.08
615.05
625.39
697.74
660.92
754.43
687.66
840.19
845.15
1001.81
642.22
386.15
433.35
544.85
551.83
565.69
565.90
529.54
409.85
433.84
428.87
2664.54
542.62
594.75
430.25
621.39
528.27
550.55
528.38
610.90
530.43
684.00
548.56
592.02
809.17
753.25
546.93
566.33
503.14
486.84
549.58
611.90
580.64
626.27
596.75
581.55
471.00
732.27
592.84
590.94
553.11
543.05
554.24
654.89
499.59
631.37
548.04
662.41
670.28
2473.34
631.51
638.88
544.74
645.90
594.02
674.93
536.03
525.02
525.64
539.08
431.92
438.48
943.31
605.42
426.45
534.32
510.93
542.26
509.86
566.25
619.62
678.59
511.12
581.99
527.68
741.53
559.20
625.45
604.41
562.78
594.66
719.25
631.67
715.52
524.89
523.06
417.12
2370.32
535.75
592.19
499.57
652.34
549.79
575.59
644.45
708.59
634.42
711.31
623.54
581.03
949.01
504.21
507.89
638.03
606.12
803.06
663.78
790.16
385.04
490.05
426.95
607.06
758.13
795.95
613.37
645.82
571.48
673.89
564.65
606.95
575.85
539.32
563.30
573.18
546.34
2399.98
778.44
740.07
455.38
514.01
450.10
405.78
467.63
628.69
699.00
768.95
554.97
470.54
937.79
421.12
508.18
611.89
570.18
700.09
618.40
646.21
562.98
733.38
733.00
828.82
656.21
604.82
423.11
350.85
440.49
682.49
559.98
657.37
611.37
678.80
616.81
705.63
606.67
2422.42
644.76
677.70
558.16
644.62
601.35
741.58
630.88
657.86
518.95
580.04
450.99
550.58
944.43
619.51
539.19
620.02
427.66
513.03
385.87
429.24
403.49
430.21
407.54
489.45
489.14
647.23
567.85
575.38
630.13
765.16
732.22
1032.98
893.21
732.30
566.38
632.48
472.05
1206.12
560.85
642.59
565.88
522.56
366.24
461.60
444.29
598.10
501.67
553.88
423.71
477.06
560.54
706.98
642.19
579.25
579.07
613.96
505.22
684.48
585.58
669.47
613.51
607.29
2213.66
567.86
430.57
504.17
417.41
478.61
369.19
448.21
430.34
566.82
494.63
598.20
475.46
1133.36
543.03
718.37
531.79
738.61
646.42
898.81
823.65
842.28
585.12
594.09
467.37
468.42
481.61
544.68
526.77
652.36
564.89
648.53
581.38
617.96
496.05
660.34
609.37
665.13
2304.90
807.78
670.25
739.19
485.78
413.02
454.63
411.30
434.05
435.53
419.42
536.05
538.63
1229.62
572.15
684.07
523.56
638.11
641.10
626.17
657.19
707.44
799.95
947.21
825.02
832.12
415.38
423.44
461.75
532.59
502.27
648.31
655.28
719.40
604.29
756.74
608.07
534.17
1947.97
410.79
445.57
567.41
374.27
535.62
470.80
575.73
560.13
634.21
473.28
537.27
429.89
748.88
467.38
452.88
392.10
444.91
389.76
599.22
551.65
604.79
560.16
760.76
640.64
652.59
548.40
477.89
551.33
720.80
566.78
654.95
487.18
578.56
547.44
567.03
558.91
558.64
2109.30
752.55
648.38
741.70
603.49
578.64
529.82
688.69
694.18
800.40
744.22
756.96
522.73
1105.64
670.05
712.10
599.16
651.49
575.03
759.60
622.52
733.71
533.58
544.45
358.63
409.31
415.72
482.95
411.74
453.04
401.94
516.87
506.77
525.34
437.36
503.69
525.98
619.53
2226.71
737.70
670.29
741.30
619.31
679.46
604.40
711.03
633.21
660.78
469.80
507.59
498.37
1260.10
682.21
797.02
685.24
745.14
517.07
418.65
531.26
693.62
634.30
713.98
647.52
786.51
743.89
743.99
767.53
865.44
520.45
462.34
525.17
408.30
378.52
479.02
515.57
533.37
2161.92
635.80
476.70
544.58
479.91
664.78
686.86
830.01
753.28
850.92
685.38
676.39
384.34
1052.22
578.74
629.09
490.61
610.89
382.30
376.87
383.80
607.22
602.32
698.90
538.13
614.65
451.88
471.92
402.26
617.59
650.13
773.37
760.19
882.48
657.63
556.16
421.05
441.98
2093.03
528.74
487.98
589.09
529.70
720.30
730.43
901.07
853.90
814.01
669.72
530.39
374.69
601.90
413.56
362.48
367.63
484.54
386.46
514.93
561.28
725.49
677.73
813.16
698.37
628.31
597.44
509.46
438.59
412.85
389.30
506.86
547.26
735.31
648.80
814.95
526.18
479.75
2110.56
707.44
637.34
620.60
403.47
464.82
414.34
597.80
594.21
728.45
570.00
452.13
520.75
1247.84
539.98
590.56
464.82
550.47
477.41
596.62
513.48
655.68
496.74
581.35
557.76
696.14
764.21
820.33
666.66
666.89
582.65
680.39
642.11
645.45
458.40
481.21
359.70
560.21
1984.77
531.58
554.58
476.13
305.28
410.25
373.41
512.14
405.97
437.07
390.04
485.07
487.85
1256.82
702.81
859.37
635.71
613.76
637.01
799.31
733.84
832.46
601.31
702.44
497.62
484.28
465.99
494.97
784.60
459.32
388.13
554.40
506.39
686.47
574.30
712.05
480.31
618.63
2150.33
1002.59
998.71
1000.01
802.93
646.63
466.37
425.17
582.51
683.45
520.55
610.38
2085.32
480.47
370.06
429.02
387.89
389.09
399.59
545.34
511.56
620.49
560.47
730.86
654.12
1281.03
635.31
738.89
581.46
557.27
502.11
628.63
480.76
522.19
364.49
416.20
443.74
502.69
613.01
589.67
535.67
640.58
482.48
498.28
413.40
507.79
480.29
566.01
538.20
723.92
1979.77
792.76
562.58
697.36
590.92
652.88
552.22
573.62
434.22
580.46
441.37
536.77
479.10
1155.91
401.62
442.79
286.80
343.11
383.05
565.08
558.23
755.92
542.37
583.19
564.93
655.29
608.72
650.66
609.36
746.14
659.81
738.33
672.54
774.78
711.01
827.88
728.27
586.21
1967.42
517.54
446.48
391.88
325.58
398.13
544.33
615.81
600.63
531.58
448.92
583.32
545.40
1245.95
629.90
722.58
426.80
424.75
422.71
551.60
558.29
664.26
532.62
663.37
538.62
554.47
433.23
442.74
397.69
425.06
498.29
670.16
525.67
743.63
550.41
703.68
658.71
719.91
1972.14
646.20
529.97
636.05
514.75
622.12
556.96
549.97
471.43
590.03
591.77
695.37
587.69
1192.78
565.09
672.69
513.83
543.24
400.59
455.16
476.68
577.52
586.59
730.65
719.73
727.12
621.15
560.45
543.01
666.38
589.95
609.85
537.50
587.70
497.08
475.10
352.81
329.66
1816.59
464.11
414.63
574.18
438.42
557.35
479.17
663.19
504.12
797.19
635.15
457.80
318.97
977.32
509.70
855.55
856.15
828.74
752.17
995.45
1148.84
1290.36
703.81
435.86
650.47
954.78
369.86
514.88
433.74
607.57
459.80
505.24
483.85
526.05
404.96
571.94
520.49
599.82
629.72
927.09
873.44
849.95
588.26
528.04
323.46
493.82
378.35
451.97
339.19
348.72
1842.09
452.48
614.42
728.09
542.23
617.65
594.06
685.27
636.76
725.31
565.90
594.70
492.65
1116.25
577.00
546.62
389.56
473.87
353.29
505.05
541.25
815.32
837.76
942.17
592.70
2078.55
330.99
491.73
599.25
636.41
350.66
400.75
415.25
532.74
512.72
772.54
608.49
734.28
1208.30
751.92
594.20
619.16
534.27
612.90
389.29
384.96
361.90
533.41
535.33
625.06
575.61
703.52
362.97
364.30
349.71
585.16
601.51
736.84
613.97
695.11
598.51
484.74
395.62
1855.42
653.95
898.87
681.62
837.64
670.05
671.21
530.91
648.57
524.43
548.44
358.24
406.72
1088.56
666.80
557.47
685.13
561.89
534.11
420.97
409.42
392.17
465.51
375.01
480.55
423.09
589.20
448.64
481.59
460.92
530.99
514.02
593.49
563.80
543.42
551.72
777.26
674.47
2038.15
651.40
649.07
485.43
549.84
445.32
549.42
537.30
638.62
565.79
684.90
564.78
593.37
1108.03
529.67
429.99
554.18
474.77
622.70
465.91
504.56
417.21
674.47
528.92
561.70
533.72
771.92
533.53
613.10
629.84
694.10
633.27
656.68
629.90
731.60
644.25
657.69
426.84
1645.52
406.38
617.74
606.88
724.81
563.71
558.44
428.14
551.72
529.60
585.16
540.05
715.27
1249.67
856.22
631.53
910.30
943.09
888.52
429.01
380.02
783.21
589.06
407.34
365.85
1584.36
646.90
585.11
772.65
699.61
809.25
639.63
820.88
719.31
776.37
563.03
591.82
492.53
1192.66
517.65
424.85
317.50
427.19
426.97
582.90
521.68
552.39
531.50
480.05
388.08
468.27
596.11
640.17
510.79
600.36
503.76
614.47
570.38
670.85
626.13
771.62
662.57
758.67
1717.23
816.80
784.29
990.15
667.83
810.44
716.89
995.65
1003.04
1011.33
616.52
528.03
1633.92
368.40
488.80
516.32
506.23
380.68
383.98
416.51
403.70
522.93
414.65
409.07
303.41
672.91
422.67
552.06
568.04
562.19
441.18
442.39
519.56
615.42
568.97
413.69
405.83
601.76
699.58
921.94
748.20
809.24
581.34
863.64
884.31
799.43
574.59
608.62
423.62
516.29
1311.22
625.51
537.24
638.26
597.00
697.34
553.55
718.83
599.49
751.44
502.90
487.36
397.05
1090.43
513.97
660.57
612.55
611.45
500.31
531.42
400.39
420.55
377.92
490.00
317.31
347.40
541.47
609.18
568.80
621.36
561.27
569.81
497.44
525.52
418.92
516.65
429.27
556.95
1396.22
522.04
546.22
632.80
540.27
608.11
451.23
618.05
526.19
620.95
564.63
680.30
565.13
1275.75
633.94
732.65
731.61
1043.03
1091.41
1030.15
402.40
1284.19
1226.87
415.44
683.13
890.96
661.45
607.71
493.44
670.11
734.74
778.42
617.86
627.17
514.89
613.46
748.68
2780.39
958.96
985.92
668.16
518.62
347.97
393.44
322.20
375.71
443.48
508.98
430.70
3485.06
527.98
688.92
589.82
654.16
543.00
556.52
571.42
614.93
440.88
579.42
507.01
560.20
1115.27
696.61
685.54
778.31
740.90
858.05
676.79
632.35
341.56
490.19
399.96
562.81
566.52
661.75
596.19
914.47
812.62
819.38
711.13
530.34
464.83
538.80
428.38
345.42
384.35
3440.35
436.06
648.35
544.96
555.91
523.81
523.43
464.19
459.41
277.80
367.82
418.87
564.88
1079.05
603.79
514.73
594.98
625.13
747.17
817.38
964.48
683.00
680.95
558.46
509.62
1192.69
641.12
525.85
598.49
561.52
604.49
452.55
595.42
499.10
576.09
465.71
523.27
489.63
1268.10
492.54
467.07
406.93
505.00
434.89
553.95
572.24
734.75
601.48
414.40
305.78
479.26
601.81
631.09
618.67
783.82
645.17
675.02
614.62
661.79
535.61
707.25
526.39
589.84
1222.55
647.66
554.05
501.95
513.24
719.41
661.77
801.70
423.21
466.55
598.09
340.89
411.60
1202.00
555.54
655.78
681.96
832.55
624.11
739.51
634.24
843.43
505.90
533.73
462.41
713.12
800.72
722.22
328.01
846.86
726.00
454.95
559.62
674.81
616.38
666.34
476.09
658.52
1487.76
948.08
919.54
789.17
622.67
663.23
501.70
575.56
375.33
520.58
516.02
723.53
652.26
752.73
495.07
539.72
399.68
413.17
338.19
388.98
340.75
527.32
566.71
691.26
541.17
617.69
681.55
720.41
466.69
705.29
558.84
718.23
511.02
540.61
417.40
458.85
366.42
430.79
1206.25
660.56
487.79
584.29
484.98
630.74
570.61
771.12
711.59
607.62
562.60
637.00
553.93
1110.94
405.57
533.87
573.24
770.00
563.33
633.69
529.67
653.56
569.78
710.11
658.63
753.04
623.14
493.73
402.06
456.57
458.80
464.36
303.03
373.95
401.24
454.17
342.37
373.06
1167.18
761.85
684.35
713.00
556.38
672.29
546.74
638.83
483.45
558.13
419.24
688.78
680.44
1400.21
861.19
726.97
354.71
347.48
361.02
473.59
452.05
616.66
438.67
573.54
426.10
672.22
767.22
709.18
476.97
497.28
462.11
522.61
449.70
528.13
502.79
622.40
615.95
638.49
1198.80
588.70
449.10
665.23
740.21
791.75
699.96
798.67
657.29
563.60
481.17
584.37
480.18
1011.32
485.75
596.87
613.24
683.76
511.42
471.96
420.01
389.59
312.13
437.27
447.79
627.85
683.36
510.40
383.84
412.83
407.56
713.98
668.28
476.27
382.42
679.02
661.51
800.98
1162.61
594.10
471.47
662.78
640.70
753.63
719.31
704.98
459.57
402.29
468.76
587.93
444.45
1187.60
466.71
678.43
592.60
788.26
661.20
660.91
453.96
369.50
319.76
412.65
521.31
620.03
638.55
599.28
552.73
515.83
482.32
455.83
449.68
529.99
358.71
517.85
570.75
743.03
1263.96
700.75
620.86
595.88
501.83
494.52
430.31
483.06
460.97
548.92
593.09
703.70
539.72
1158.40
667.84
594.42
437.44
540.13
424.06
564.67
513.08
685.74
800.32
830.38
645.46
1688.03
826.52
855.21
535.82
582.74
381.32
495.21
627.22
495.82
456.87
389.72
347.31
484.05
1148.40
679.36
482.78
449.92
364.90
447.46
510.61
712.77
676.86
780.71
654.76
777.75
689.47
1041.18
832.85
797.19
354.10
380.53
352.88
506.72
486.32
604.83
490.09
651.54
667.67
2801.48
644.54
616.17
406.96
608.79
536.82
675.06
686.29
874.38
718.63
714.49
518.74
579.45
663.55
506.72
477.71
576.57
501.89
580.88
473.51
552.64
398.30
393.04
424.80
550.76
438.90
598.19
532.61
557.90
504.05
504.71
406.96
558.51
587.19
709.45
580.43
724.34
641.49
3244.63
573.24
639.17
468.38
567.38
468.19
593.53
543.90
546.32
493.82
644.98
726.92
730.01
1056.54
434.31
353.07
558.80
643.34
668.97
356.85
547.81
435.22
421.76
468.09
597.48
584.60
789.20
634.21
740.54
591.56
635.72
609.21
654.49
452.62
567.23
508.91
559.93
537.93
3262.53
531.44
547.12
564.79
639.06
542.50
740.14
593.83
564.73
427.25
523.79
456.65
560.14
1209.63
641.96
506.02
578.72
488.43
546.77
447.45
568.17
537.25
601.71
423.28
474.72
576.51
708.78
481.23
695.31
562.39
774.69
639.25
614.26
404.09
588.40
539.12
547.07
509.76
3341.26
444.80
536.20
469.59
633.57
481.56
616.98
581.67
709.17
574.70
674.69
558.25
627.14
1238.53
