357
415
367
405
405
475
797
910
747
698
629
700
721
1902
506
486
552
576
635
787
919
874
609
400
527
391
784
903
997
975
838
757
459
436
379
451
434
393
418
603
459
441
463
461
462
592
657
704
623
606
576
2315
647
590
510
550
559
573
511
571
560
603
609
688
1408
931
826
580
431
463
474
562
618
699
679
691
659
816
720
739
764
759
511
437
414
415
462
659
845
2322
821
706
457
387
417
609
957
790
391
461
653
799
1414
946
731
614
659
913
1125
1198
621
581
1119
576
1171
722
710
644
719
653
474
433
464
425
381
444
847
1248
965
528
411
384
508
656
846
985
913
689
720
1888
430
402
434
566
426
403
438
496
548
620
942
1207
1357
894
477
535
711
377
456
859
982
926
768
683
1849
787
830
989
1090
727
501
481
378
624
767
528
355
450
755
624
362
426
434
463
489
528
559
588
592
2113
559
579
910
1407
1443
1309
1154
667
580
591
486
1904
687
703
657
554
377
460
575
602
469
423
414
471
692
528
455
475
523
605
645
793
814
767
608
458
439
634
574
688
707
590
448
534
509
507
604
760
717
2037
558
532
658
914
1037
928
725
551
455
498
447
409
640
447
463
492
458
495
475
497
499
535
566
597
632
757
642
658
655
786
807
784
587
426
375
385
482
1983
798
738
610
566
539
632
683
717
629
537
436
525
1239
752
619
583
466
533
587
641
496
445
409
508
651
884
896
1227
1411
1459
971
422
1037
758
420
571
554
685
505
503
592
654
672
679
599
555
485
448
429
3841
480
464
454
466
547
593
719
819
818
728
487
393
1049
381
443
511
538
531
455
478
459
499
574
591
548
702
624
682
698
711
583
434
447
665
847
860
679
3658
645
605
564
565
527
511
491
446
421
465
510
593
1167
609
555
411
372
607
794
859
735
656
537
524
527
774
634
727
561
531
507
625
658
624
570
493
448
3749
530
576
576
640
619
663
639
585
537
566
574
615
1250
603
511
561
622
661
658
679
687
835
914
976
913
944
605
432
378
394
368
417
438
482
561
797
834
3709
522
390
579
722
577
421
585
726
916
1187
1391
1323
1053
587
414
437
537
701
690
540
394
445
455
389
1079
573
675
704
703
650
495
435
444
607
822
998
983
1040
685
436
401
382
407
435
437
560
563
570
610
1936
592
649
647
702
666
627
533
549
499
471
538
575
674
509
416
432
447
475
495
663
705
663
560
560
571
651
572
603
465
446
511
768
731
623
528
500
491
3829
566
582
574
599
522
528
468
456
509
593
613
632
1253
625
557
592
629
602
509
685
804
697
528
471
511
631
448
428
451
459
565
679
658
655
558
590
533
3705
644
747
871
861
784
832
821
874
762
595
511
540
1203
606
688
751
624
432
511
464
385
432
451
496
458
679
587
609
586
592
496
441
455
541
528
534
494
3792
538
554
624
738
713
711
674
643
528
562
624
880
1535
1286
1161
1021
622
414
535
733
722
486
388
470
1391
798
528
496
752
414
647
927
1003
945
688
649
1331
655
576
560
572
640
649
583
511
592
577
592
525
1213
550
560
558
498
482
498
503
496
465
542
537
611
727
608
581
651
638
658
586
526
432
511
640
726
1511
977
951
1006
982
623
427
407
432
554
602
765
591
750
557
616
659
720
704
624
481
496
387
380
386
430
611
540
428
501
568
660
673
793
765
531
369
400
1333
817
810
650
472
497
524
529
581
638
542
493
435
1134
385
397
368
639
825
753
526
385
511
448
672
785
848
739
649
642
656
735
765
731
670
624
638
710
1333
493
432
657
396
503
546
579
533
523
524
630
804
1393
641
552
560
655
655
633
592
575
602
767
794
752
636
481
405
477
525
606
610
668
720
815
751
734
1331
646
533
480
442
495
503
483
404
396
398
394
380
1167
530
640
624
670
677
677
623
511
431
496
494
602
707
689
635
662
647
625
560
551
523
574
527
537
1334
685
579
559
571
578
579
611
576
611
559
560
567
1313
687
687
571
552
495
499
548
591
448
451
592
751
880
683
528
434
430
484
544
583
607
627
624
630
1327
555
493
597
660
661
652
670
592
622
593
598
576
1355
688
631
437
496
528
621
738
851
751
702
603
496
505
417
413
442
459
542
671
847
786
495
752
935
1313
752
918
978
926
855
608
534
523
592
566
597
492
1294
564
538
439
393
491
452
405
430
560
654
665
709
819
814
834
923
704
498
385
527
618
655
587
560
1310
477
429
463
541
510
478
476
411
459
621
592
487
1307
626
700
797
699
465
441
439
626
665
673
592
603
714
506
558
832
916
1095
1040
627
395
400
474
567
1326
598
637
751
705
704
643
622
557
563
536
528
446
494
414
461
465
432
565
640
697
779
652
505
468
3489
621
576
535
538
501
506
511
576
551
664
642
651
1392
705
592
488
432
482
469
525
496
560
546
595
579
682
593
615
589
579
551
598
559
539
526
558
582
3412
659
697
756
772
720
638
549
558
641
775
682
585
1184
448
397
419
401
410
495
661
643
689
666
649
608
710
624
626
599
624
574
601
577
589
564
583
546
3490
585
541
524
561
528
565
528
543
598
688
653
634
1315
490
417
438
475
547
624
688
656
669
631
629
595
717
687
751
826
895
833
688
550
469
430
445
416
3664
458
531
485
576
543
530
437
459
507
576
549
529
1193
528
511
559
511
562
583
634
637
624
560
589
566
725
676
720
708
605
473
453
435
535
471
443
476
3408
675
706
647
656
643
720
784
882
822
848
919
1073
1515
656
399
412
400
421
422
445
447
462
444
443
3638
574
573
622
784
872
756
671
595
624
694
723
583
1271
436
453
505
528
432
468
461
411
429
450
439
463
544
465
459
480
437
451
391
446
533
633
670
717
3371
666
457
487
463
472
483
503
506
576
569
609
623
1390
790
767
672
652
562
549
510
544
501
528
496
529
710
644
644
629
543
531
489
592
622
650
640
666
3395
705
610
579
546
553
502
509
578
641
640
596
511
1339
528
499
422
435
484
615
811
885
842
815
703
634
610
458
447
484
464
459
469
511
510
500
490
544
3471
726
742
848
843
779
574
429
560
394
589
662
656
1391
667
795
816
951
884
743
571
546
498
507
430
426
486
440
405
419
411
416
412
430
483
587
614
672
3463
787
759
782
791
890
979
1050
880
595
560
780
588
651
496
459
412
450
466
501
550
575
494
474
496
566
720
637
526
486
610
751
762
757
688
671
686
753
3215
637
496
459
432
526
580
688
592
576
470
440
416
1227
496
522
524
501
528
595
654
720
710
723
598
587
615
491
542
754
863
833
643
511
430
456
466
454
3365
561
608
602
624
607
586
613
586
583
538
547
478
1395
511
551
617
677
608
614
478
430
480
624
624
605
607
507
506
560
576
595
431
458
549
599
505
587
3227
703
663
672
607
634
593
565
501
537
477
510
476
1281
578
611
608
625
687
812
711
578
432
417
467
640
833
851
791
769
746
596
495
578
699
759
615
441
3579
460
596
659
711
769
818
784
587
436
399
464
635
1395
704
643
530
483
479
583
613
656
566
507
432
484
640
531
510
540
500
555
500
533
511
511
493
491
3379
636
592
598
621
749
771
698
601
592
673
780
637
1330
494
491
546
839
938
669
511
523
486
621
555
459
526
483
459
416
432
486
416
446
420
438
407
426
3295
589
622
662
624
751
829
985
1091
1203
1131
896
509
460
785
1109
896
529
442
587
758
815
574
511
574
1392
656
591
454
654
417
507
591
608
631
688
656
704
752
643
594
598
590
598
560
595
510
458
453
487
3239
592
563
618
578
566
675
656
481
433
435
509
547
1391
612
569
475
540
563
640
692
683
554
617
618
663
788
727
670
731
816
759
531
553
579
554
447
475
3054
559
544
613
609
653
540
542
421
427
439
477
487
1392
641
705
704
800
798
757
606
586
497
483
477
523
656
610
529
478
442
485
511
543
510
537
511
497
3201
535
544
567
575
598
570
599
624
635
633
667
662
1392
677
688
653
679
645
656
571
544
511
528
528
566
688
592
553
595
559
546
496
481
449
445
448
451
3107
562
562
591
566
560
542
622
633
656
597
465
422
1250
501
543
555
611
677
737
704
595
464
585
672
719
837
624
548
629
465
496
533
612
642
710
653
528
3103
642
787
896
819
739
559
449
566
637
559
443
448
1394
772
845
793
702
525
457
469
500
478
478
577
636
736
640
478
454
421
436
435
506
510
575
616
626
3120
670
594
624
602
613
656
763
798
645
450
442
443
1392
706
734
672
624
570
557
511
497
479
496
483
563
720
716
649
635
624
669
623
635
610
682
729
753
3005
784
587
483
448
457
438
550
550
419
432
478
454
1395
583
635
560
621
621
679
656
602
531
595
649
770
888
816
683
566
502
529
506
549
558
562
544
566
3063
578
583
592
573
717
841
900
1038
1160
877
642
525
609
439
800
947
507
483
595
720
754
530
484
432
3116
581
615
607
643
624
624
656
715
651
596
422
485
1042
571
680
710
629
605
610
578
580
551
526
557
562
675
483
530
535
699
858
938
848
683
490
437
528
3231
461
605
617
710
723
699
629
616
531
511
443
507
1056
557
529
605
596
671
647
626
554
535
564
592
511
665
560
560
554
499
434
436
492
624
662
673
611
3087
638
656
634
661
614
624
657
710
704
741
737
713
1190
554
455
453
506
534
566
528
432
443
464
499
543
742
629
627
775
795
624
612
523
551
592
580
625
2967
737
639
595
651
751
768
784
819
871
858
789
640
993
881
1107
645
424
554
576
609
550
543
496
523
571
841
739
675
541
548
497
496
594
482
463
555
559
2928
661
637
586
589
529
559
525
560
577
587
585
628
1165
667
692
806
781
735
562
436
475
502
669
752
668
776
691
746
752
784
695
529
427
448
432
497
499
2859
579
585
564
579
511
498
498
607
702
813
811
785
1325
705
533
470
444
458
443
466
523
594
567
555
557
642
545
542
542
511
551
577
595
616
601
612
607
2960
777
823
839
798
663
594
575
849
1206
1386
1113
788
626
626
1200
1213
941
480
494
654
671
587
465
454
694
717
889
1001
834
716
597
565
548
550
527
597
2891
637
564
611
719
863
838
750
461
465
419
496
563
1399
581
565
538
558
483
538
569
629
594
656
653
762
935
1020
907
752
656
592
432
449
493
592
631
692
2139
539
832
589
447
560
592
544
483
494
529
656
733
946
766
795
687
528
497
607
681
718
669
599
509
509
550
445
484
542
577
721
752
688
502
444
451
631
2882
753
592
569
511
544
576
587
554
547
510
539
493
1386
592
750
839
891
785
757
753
741
686
630
500
538
641
562
557
579
496
509
485
497
482
544
528
565
2789
597
531
544
565
752
903
954
654
458
432
440
463
1400
672
754
748
684
551
492
463
535
614
743
830
892
833
570
460
475
535
604
571
576
496
511
467
496
2737
663
815
955
870
742
594
569
501
505
426
496
461
1355
643
816
816
795
667
539
486
464
461
496
496
486
511
533
569
623
550
576
528
545
521
590
599
611
2769
656
599
589
582
617
626
656
676
682
663
701
657
1405
661
736
826
860
721
591
450
455
478
578
664
694
706
528
460
446
534
665
593
677
653
703
640
642
2751
657
637
656
677
755
710
590
508
482
487
691
897
1619
1295
1422
1350
933
470
1010
948
944
1036
725
435
562
481
470
461
507
538
617
646
656
603
594
528
2768
758
810
785
768
704
630
536
527
591
709
704
721
1360
754
745
775
731
693
615
551
571
752
768
603
455
497
447
441
448
547
490
465
464
497
622
757
688
2786
704
730
620
578
562
590
563
511
509
496
507
601
1187
688
688
686
661
624
556
560
508
497
478
546
600
761
609
621
602
619
658
688
672
721
747
851
880
2795
724
483
759
997
622
498
560
587
560
559
667
765
1394
782
678
654
624
605
562
583
595
618
583
624
624
779
677
683
634
617
592
624
592
585
576
688
679
2634
624
503
465
507
527
511
501
567
661
718
736
700
1215
590
501
509
497
525
479
528
592
693
738
842
991
1409
1153
735
496
443
444
432
421
463
477
541
582
1424
833
752
635
627
464
461
454
539
592
628
625
663
795
769
770
706
553
529
469
451
439
457
463
506
2519
700
819
945
747
631
546
622
645
592
470
455
464
1405
720
804
697
641
733
820
752
651
511
578
587
623
799
740
681
659
573
601
586
605
528
578
624
656
2634
779
659
551
493
490
449
431
582
784
467
665
690
1407
527
567
489
566
601
685
633
629
546
489
471
597
749
686
660
736
767
767
702
637
571
665
766
905
2527
728
427
511
432
458
449
463
448
486
640
757
700
1425
751
755
701
725
683
690
687
675
633
599
596
549
580
553
557
604
600
686
677
684
666
693
639
649
2559
763
851
879
782
680
629
593
459
465
532
454
471
1401
605
592
562
595
607
655
640
694
819
727
639
603
496
451
576
694
663
667
659
586
586
605
643
708
2497
726
549
454
438
429
474
576
651
745
783
686
545
1387
527
755
950
1057
981
796
443
432
466
684
749
2591
683
537
431
457
560
563
511
458
445
446
464
496
1136
657
651
667
611
606
607
740
827
884
752
488
668
565
442
499
560
658
714
757
733
678
604
668
631
2534
561
458
479
597
667
755
687
655
601
543
496
528
1100
630
653
697
623
656
690
688
578
589
656
741
781
943
830
846
647
451
419
432
464
529
603
678
657
2517
677
614
511
488
496
519
466
526
589
624
597
565
1035
497
566
640
684
860
918
873
768
707
595
511
445
565
471
528
482
496
464
442
461
467
486
525
469
2523
784
833
768
778
742
845
817
882
681
501
418
496
1273
738
693
651
578
592
606
656
576
590
571
717
651
737
416
569
462
547
630
672
673
720
627
525
457
2383
543
562
563
591
615
670
768
917
944
846
624
463
1023
539
663
784
839
743
496
469
439
412
422
462
499
466
385
559
689
735
661
592
656
782
802
785
714
2406
717
687
624
688
640
653
624
590
486
528
528
583
1225
650
565
573
578
571
539
572
570
629
570
589
560
723
665
670
629
663
656
709
687
656
610
676
680
2422
688
813
877
816
619
525
489
554
496
593
560
593
1153
554
453
410
415
403
427
486
540
592
493
455
423
588
538
511
429
410
417
530
560
567
555
687
820
2559
890
734
543
592
624
579
528
499
534
717
895
923
1395
581
407
448
462
567
696
701
560
634
792
728
491
543
437
470
426
495
493
560
523
511
461
435
416
2275
624
722
688
656
609
634
674
751
721
755
571
553
1201
741
734
713
661
663
624
560
526
583
706
784
639
609
417
511
692
698
565
474
422
559
409
481
576
2383
744
811
765
827
839
908
848
815
507
447
543
622
1276
672
553
502
481
491
496
503
419
416
435
506
539
688
587
622
640
703
637
556
461
464
489
587
576
2299
706
678
596
505
466
546
554
597
591
647
590
576
1087
597
562
624
601
595
576
601
557
574
490
482
479
657
625
688
741
794
752
786
955
938
629
447
368
2222
432
415
406
527
604
739
769
539
363
446
464
483
1150
632
625
660
624
639
563
703
674
732
693
704
763
1008
752
635
451
469
383
394
371
454
546
656
671
1905
688
657
592
634
583
528
506
560
592
641
550
598
804
816
1008
1051
720
469
357
379
394
486
499
579
1893
731
715
925
939
769
606
678
724
591
384
385
433
615
432
476
423
420
475
523
497
496
510
453
459
510
635
538
450
464
511
627
672
672
615
643
580
591
2099
633
597
624
638
674
620
579
491
495
503
550
542
1408
689
681
649
656
490
499
530
635
626
642
767
850
847
722
624
558
471
594
711
688
650
634
634
684
2095
621
407
501
427
498
649
685
570
527
553
691
775
1435
529
455
459
400
471
592
608
612
598
693
710
771
861
730
479
435
464
623
679
699
627
487
367
379
1791
405
427
502
559
656
657
598
522
461
435
544
675
1413
640
549
553
592
559
569
559
682
763
1046
1296
2635
1406
821
453
1275
1334
783
411
423
588
915
950
2032
699
618
526
541
467
500
507
545
479
448
384
406
718
661
639
605
554
543
637
694
638
704
715
657
475
543
592
720
633
545
432
559
599
581
498
497
493
1907
613
650
622
621
565
556
543
563
578
720
762
783
1392
721
487
458
483
507
496
542
543
629
710
886
924
912
614
448
400
406
528
717
718
671
603
560
484
2026
529
494
480
477
499
567
453
466
431
437
496
609
1392
811
789
773
623
511
422
497
479
464
497
606
595
769
658
658
538
507
525
640
590
637
618
649
706
2001
914
784
704
804
690
723
562
458
484
705
763
784
1393
751
613
557
434
435
400
461
495
531
438
406
731
588
464
391
508
556
467
468
402
389
363
495
614
2032
770
806
837
974
976
945
796
669
477
457
480
559
1206
654
566
487
398
544
597
570
597
676
677
657
592
711
662
704
649
646
613
594
503
540
662
808
752
1884
431
415
384
511
495
502
576
607
480
675
963
880
1387
678
494
400
471
576
405
413
487
621
607
619
611
802
686
717
665
672
656
705
697
765
628
494
530
1807
670
677
499
496
510
624
657
737
646
642
485
582
1264
758
805
775
561
496
375
425
430
467
449
478
458
612
624
695
679
733
667
685
629
688
585
482
449
3637
620
615
534
576
603
689
522
407
373
383
382
490
1285
641
575
608
674
822
796
734
537
410
409
416
509
750
640
645
624
659
696
794
720
816
767
662
438
3920
464
458
548
663
706
806
793
833
976
1049
626
624
874
445
590
609
579
690
690
656
635
637
557
501
394
563
442
461
458
489
602
660
623
624
464
530
497
3875
646
741
765
843
835
735
469
398
368
401
421
500
1297
701
570
435
365
373
434
606
656
661
600
596
560
686
559
630
624
628
587
572
567
650
607
687
601
3719
669
689
656
607
511
544
535
625
646
645
555
605
1268
703
719
606
463
496
511
574
523
496
446
435
469
829
761
769
741
611
471
551
650
734
720
579
417
3696
486
528
529
544
542
582
603
651
592
611
632
735
1386
746
593
544
461
582
556
545
485
768
921
925
654
485
713
675
402
486
501
566
623
735
795
935
1003
3745
427
400
418
563
618
626
622
631
554
543
489
509
691
530
511
567
686
759
720
722
656
531
387
407
374
567
511
605
582
625
590
633
579
591
533
528
501
3635
612
582
599
634
678
742
649
660
640
691
639
583
1287
627
563
594
638
733
753
832
777
777
775
828
605
549
784
771
400
483
474
560
605
698
560
496
494
3691
640
590
430
407
410
439
400
421
421
496
496
541
1307
606
608
657
666
694
766
821
767
779
715
645
480
642
553
571
538
508
431
619
589
643
768
992
997
3642
493
745
743
400
578
795
747
736
647
643
619
669
1385
690
455
445
471
628
674
575
414
433
594
706
494
559
551
543
631
777
752
729
629
560
564
610
592
3552
656
724
688
656
511
447
374
494
545
406
387
440
1211
576
592
624
563
587
555
593
537
573
558
559
560
729
638
704
641
655
560
592
577
694
669
695
659
3611
554
425
545
673
719
721
705
709
642
651
564
637
1341
720
612
573
481
498
467
528
511
464
384
406
411
608
585
722
707
613
461
528
567
688
688
717
626
3536
562
550
541
581
550
527
448
409
385
442
482
528
1274
550
586
595
511
614
666
784
690
554
544
598
624
820
739
639
446
425
400
479
615
656
635
617
590
3573
755
879
866
819
710
605
465
419
402
474
561
678
1203
416
378
446
387
511
624
693
640
536
398
397
544
959
1040
1233
1207
1104
688
434
535
473
401
528
637
855
720
637
464
477
466
468
499
511
498
544
529
3525
560
493
524
642
630
652
612
586
571
693
710
778
1389
620
528
589
543
540
523
591
572
626
582
634
673
926
699
816
755
880
854
733
570
489
427
413
395
3824
799
978
731
405
428
466
459
508
523
547
528
598
1390
735
708
727
685
709
605
614
569
630
608
627
605
730
613
722
686
564
404
404
480
774
1039
1170
1040
1437
461
430
415
418
398
397
396
499
587
637
650
3470
819
815
757
614
433
410
469
555
542
554
474
482
1204
683
631
608
532
534
609
613
526
493
573
576
510
631
576
608
593
558
471
506
490
547
511
525
543
3551
587
576
582
610
549
565
511
502
561
656
735
822
1230
790
725
695
594
522
570
623
487
464
448
496
461
599
637
794
773
789
667
587
459
481
464
561
558
3361
619
577
543
580
592
674
638
543
507
545
618
618
1250
560
535
543
489
511
475
464
438
474
469
559
549
667
631
650
528
449
427
449
433
511
527
528
442
3479
672
698
717
794
859
962
1019
1082
866
467
1135
1360
611
561
848
1046
971
1046
962
743
437
461
436
461
553
464
416
425
427
448
443
446
464
523
534
581
3499
631
569
611
603
635
603
655
625
675
677
759
759
1465
757
663
462
471
400
462
511
630
677
752
703
694
624
491
418
448
447
485
507
543
499
523
467
545
3356
1040
993
935
730
591
509
493
452
606
683
720
576
642
481
442
657
879
901
882
647
500
405
430
468
491
481
538
560
613
511
550
487
565
619
651
652
667
3369
688
576
576
502
471
433
483
490
586
666
737
654
1395
453
454
542
584
551
598
591
635
606
631
631
784
1005
1023
997
796
494
435
387
436
499
798
885
835
975
575
907
618
394
489
535
528
494
445
419
454
496
815
647
571
551
554
567
600
547
490
451
533
560
770
939
880
806
736
755
929
794
591
398
446
402
627
3221
1008
803
613
440
430
426
587
662
631
448
442
405
696
483
501
471
498
565
740
762
794
675
679
539
511
605
579
526
471
421
423
427
454
389
498
531
610
3334
576
656
753
656
631
564
609
582
576
488
495
610
1527
810
818
770
710
465
429
396
503
533
528
484
531
749
923
859
773
677
602
615
698
680
691
565
502
3217
456
450
464
494
594
536
511
477
454
435
545
539
1433
696
726
669
560
501
665
640
673
746
783
703
572
525
477
439
470
482
560
591
629
613
626
497
494
3211
755
705
583
425
578
504
436
523
592
602
658
609
1400
545
560
558
613
674
746
730
797
752
694
599
583
656
749
817
789
662
641
466
459
432
462
508
450
3317
483
485
641
809
933
946
973
763
523
455
496
410
1407
707
704
590
525
451
461
438
481
473
546
539
535
655
623
571
578
544
592
574
619
624
619
590
594
3127
732
701
762
725
592
490
525
591
725
786
894
719
1409
533
497
458
592
528
435
425
615
748
881
667
532
1200
767
432
463
482
540
554
643
646
775
819
804
2093
767
669
644
596
699
737
671
533
476
432
460
436
691
498
528
464
525
511
551
533
566
587
620
577
656
785
784
720
679
602
511
464
558
583
617
542
504
3181
539
523
567
617
702
601
610
585
611
526
459
432
1408
545
551
496
555
544
572
601
723
767
817
721
536
528
422
459
744
1096
1182
863
656
625
565
432
539
1102
591
529
511
443
437
417
432
403
449
460
497
535
715
633
606
543
525
479
526
589
670
655
701
650
3154
607
624
615
629
620
710
802
876
735
567
454
538
1092
434
432
609
656
565
480
544
624
782
671
611
507
565
560
605
583
681
655
687
684
768
711
666
588
3155
709
653
577
557
495
545
555
613
485
603
913
748
1093
975
852
701
650
640
571
615
610
691
615
606
511
706
621
594
556
598
533
495
450
463
507
545
535
3169
583
542
491
548
533
586
579
610
569
597
630
666
1115
643
709
729
589
637
730
816
731
699
569
503
446
572
483
448
455
468
469
556
594
654
629
646
541
3146
463
533
501
550
498
577
597
695
720
766
602
496
962
576
722
896
783
727
708
891
1100
1330
1155
861
3510
511
434
445
434
507
735
859
762
626
463
451
656
1072
850
611
453
434
464
641
607
618
540
573
560
3135
694
733
623
601
527
589
704
819
879
877
811
758
1087
548
505
496
495
528
511
547
538
624
624
625
503
550
438
560
690
779
638
558
528
590
592
685
690
3120
695
654
551
542
499
496
530
619
701
805
715
621
1059
542
466
466
451
454
459
539
560
511
482
499
504
701
602
640
571
582
578
626
624
613
561
592
555
3167
468
481
624
784
767
792
654
621
573
613
740
942
1388
711
509
918
1099
565
443
564
576
604
545
587
3013
714
654
671
601
637
574
658
641
628
578
617
586
1469
691
752
735
703
679
662
582
545
464
475
464
533
617
617
634
679
548
497
493
558
528
556
545
594
2906
612
531
607
581
657
656
677
611
604
545
547
465
1414
528
570
557
628
688
736
723
673
480
496
547
580
642
580
503
533
488
528
592
613
484
576
572
613
2992
678
589
595
574
613
581
560
531
566
560
589
538
1464
655
693
752
894
875
789
496
638
770
464
432
467
557
585
633
691
676
643
690
810
875
975
844
723
2864
701
868
865
808
647
461
573
713
794
668
433
494
1424
585
610
572
619
609
655
629
592
568
600
619
666
716
627
571
560
585
587
587
592
560
588
539
592
2831
708
634
707
754
698
562
617
534
542
622
886
1003
1782
936
678
524
592
624
671
630
555
461
475
454
2908
443
579
881
606
446
591
627
691
651
592
562
645
1279
812
734
729
655
653
562
507
477
511
458
506
522
752
723
708
647
692
615
579
511
536
522
561
546
2864
530
566
624
686
658
656
624
653
656
675
624
645
1392
1008
1074
1170
737
619
1101
983
470
576
586
630
889
766
719
672
611
557
496
496
471
601
660
739
622
554
635
457
506
656
688
784
667
598
545
532
538
2851
707
720
682
748
730
731
624
529
451
511
479
599
1232
624
491
502
547
599
571
612
563
597
566
555
487
619
596
688
688
728
705
746
679
691
629
592
501
2815
557
652
688
751
735
757
624
554
594
602
459
464
1013
534
635
706
677
692
637
639
612
575
534
541
528
703
631
654
618
613
592
611
561
579
593
672
603
2871
636
573
459
547
490
612
576
591
511
537
528
759
1406
1016
906
817
633
574
483
457
464
505
535
587
2807
668
568
466
483
477
528
577
577
609
527
560
592
1472
650
695
762
912
869
1050
959
766
445
583
704
2960
496
656
709
765
640
544
453
480
541
607
577
617
1243
692
636
733
739
825
804
780
673
654
592
656
592
671
698
745
687
645
621
603
533
511
465
523
544
2747
877
855
797
656
448
597
606
496
445
484
493
495
1075
608
626
630
591
569
523
626
747
911
980
1047
854
657
464
469
432
466
483
547
562
620
605
674
688
1839
671
690
646
655
582
683
673
801
730
606
469
466
732
627
720
867
628
502
422
465
564
803
865
873
685
717
556
543
482
481
458
480
483
493
441
477
477
2793
721
773
781
766
686
709
628
585
592
719
656
651
1294
912
988
866
522
477
432
464
422
435
468
537
592
786
705
721
643
690
681
737
607
506
447
530
543
2683
496
565
562
674
697
717
660
615
561
579
511
566
1173
656
560
545
596
791
780
896
1040
619
447
551
2640
781
706
677
602
539
444
527
501
487
465
462
468
1474
617
661
598
687
617
617
540
571
607
608
609
628
686
710
717
735
685
672
562
481
448
524
572
657
2610
766
725
680
578
578
643
766
678
688
607
571
576
1511
720
663
495
485
437
647
921
1123
811
546
443
2725
576
783
772
765
648
640
695
962
864
561
686
976
1522
759
464
566
563
531
602
688
660
624
586
643
576
694
568
697
704
736
709
689
650
688
682
703
768
2674
1006
944
769
606
399
461
454
457
461
537
547
559
801
683
627
725
714
735
646
607
448
480
455
539
625
805
693
706
659
766
770
789
685
682
579
678
674
2608
667
691
790
738
545
511
489
505
483
511
482
496
1054
470
464
480
417
494
591
762
730
743
667
684
577
658
582
676
682
746
703
653
613
586
491
497
448
2501
624
817
861
912
899
832
729
541
528
446
443
532
1141
592
542
601
624
722
716
706
641
639
578
563
560
723
599
626
606
683
656
659
636
668
695
768
725
2539
560
635
592
547
482
464
436
462
476
553
544
585
1170
640
592
625
595
634
555
624
634
699
687
901
998
1214
715
656
1328
762
509
818
1120
1242
924
570
495
499
469
592
786
900
752
769
688
698
623
621
538
2506
563
643
620
624
455
507
423
530
639
724
693
729
1271
651
547
672
688
617
591
573
496
483
477
504
510
694
665
743
690
784
853
769
688
735
642
592
537
2503
615
648
608
564
496
496
499
543
571
630
597
662
1275
715
653
801
829
893
809
781
647
581
450
464
939
986
445
761
816
670
656
702
658
688
679
654
533
2473
562
528
443
444
461
672
785
771
435
617
499
451
1175
727
695
786
742
752
690
717
624
607
575
619
617
795
701
731
623
656
648
688
605
576
496
528
499
2413
592
624
577
511
538
590
634
658
614
621
623
623
1200
690
633
667
627
641
594
637
602
651
687
734
656
785
672
590
487
574
560
597
563
586
590
679
655
2400
459
410
440
623
745
821
752
676
559
614
579
606
1130
473
522
719
757
769
689
683
615
655
587
592
524
622
527
511
474
535
531
600
555
646
603
605
478
2455
501
581
670
912
880
918
746
487
415
490
755
907
1358
599
586
593
485
601
656
611
567
581
505
566
469
590
444
438
462
772
927
877
738
690
463
436
446
2363
565
593
560
565
469
543
561
645
639
668
619
746
1391
1010
949
757
375
437
479
594
689
670
497
511
2303
842
742
787
716
611
444
402
383
458
411
401
403
1520
551
607
599
647
630
635
601
623
540
578
538
576
647
637
653
791
843
901
704
705
546
461
406
448
2091
615
577
640
628
742
703
716
631
641
556
627
626
1583
714
754
719
803
794
807
465
448
409
460
550
780
994
1068
987
925
689
617
480
442
460
421
372
421
1809
441
429
479
546
726
670
665
647
670
703
784
779
980
457
795
977
419
650
843
753
699
634
699
770
927
1072
965
766
456
377
484
656
772
582
443
358
400
1744
498
587
720
774
825
725
722
406
404
462
747
850
1044
688
625
523
559
471
612
590
545
434
433
416
2282
547
560
576
623
578
564
498
571
699
558
434
656
1399
915
779
691
507
415
386
448
438
502
480
503
469
598
483
573
593
693
655
640
565
585
560
578
575
2187
639
694
643
684
619
652
656
720
725
805
772
858
1403
781
528
385
666
415
458
641
595
486
434
511
558
763
638
687
667
687
626
636
594
642
626
626
603
2090
631
594
573
662
640
667
568
599
557
575
507
491
1017
449
432
502
457
528
464
528
613
624
475
530
509
769
746
851
895
927
810
503
403
439
771
1054
912
2357
365
368
470
848
1090
1290
1070
865
723
576
480
1813
407
406
417
463
465
451
375
368
368
367
410
441
593
450
426
506
573
690
679
667
604
649
610
625
558
688
576
590
496
501
478
571
631
633
652
724
732
2261
800
991
953
787
545
414
547
567
378
511
699
881
1411
784
667
775
629
645
691
813
791
679
725
574
378
455
371
368
433
631
630
546
410
411
387
405
443
1971
495
534
559
550
461
560
581
620
589
656
735
850
1407
919
630
401
353
379
432
539
565
675
698
742
709
896
763
709
590
503
410
499
784
941
725
415
730
2077
528
794
935
1041
885
711
448
481
498
752
806
767
1033
929
773
714
610
576
470
428
415
413
373
362
1813
427
391
466
486
529
494
559
565
655
636
657
578
1578
687
790
788
891
819
727
559
539
482
603
659
691
731
640
432
395
449
603
533
580
448
427
566
399
1782
1003
971
856
720
746
761
869
887
986
897
739
457
570
375
402
389
533
511
494
462
528
574
722
547
417
464
381
459
696
801
861
784
738
615
703
626
656
1845
511
427
511
583
751
843
779
589
569
645
687
553
1498
491
511
464
509
464
478
557
590
577
641
640
697
720
677
730
839
810
742
397
429
381
417
400
465
1570
657
592
650
560
694
700
678
752
996
959
781
592
1535
511
506
459
510
409
415
351
417
384
464
546
605
677
643
673
929
1106
1392
1494
1516
1051
530
688
2395
642
417
375
511
627
689
617
594
525
483
387
432
1100
527
481
511
523
565
528
578
560
576
509
551
551
789
656
667
635
718
677
709
658
688
631
561
506
3665
592
650
551
611
619
659
672
675
607
703
694
592
1166
624
575
576
526
603
717
933
1047
994
627
432
1615
417
398
448
497
607
625
688
573
463
427
482
528
1570
478
463
461
546
572
712
679
658
500
543
580
693
851
719
699
826
489
422
374
432
451
573
546
602
1423
810
845
822
467
399
581
655
639
825
731
763
597
1591
590
606
502
448
405
465
511
656
729
780
526
417
453
528
623
694
626
663
660
722
688
725
641
623
1358
640
590
628
570
566
573
671
719
816
710
751
688
1634
566
400
368
420
368
417
508
704
749
810
737
586
452
398
403
432
375
400
370
442
464
539
547
596
1383
654
624
660
656
679
576
591
555
635
735
949
925
1773
811
693
574
629
690
727
694
745
668
537
367
479
723
612
382
435
448
561
578
640
555
740
827
926
1708
890
829
745
583
497
413
509
436
860
1049
1111
751
586
689
407
466
594
645
799
848
966
848
845
705
3733
528
446
387
397
397
453
486
649
656
684
582
501
1132
539
511
613
656
784
790
855
846
845
610
554
533
695
553
611
542
528
448
496
479
506
478
554
469
3860
441
421
426
495
483
491
528
633
655
735
681
675
1321
634
560
569
582
615
592
695
730
735
656
628
375
592
447
635
661
752
785
789
692
771
606
603
526
3583
570
538
534
592
637
645
615
718
653
607
559
603
1324
751
720
798
603
469
388
402
414
385
465
541
467
592
496
582
469
432
562
825
976
931
659
409
384
3535
933
942
595
442
431
497
449
496
499
583
592
722
1392
745
594
531
656
750
609
676
638
609
538
470
466
615
576
533
393
416
378
464
542
619
650
709
637
3601
695
743
688
707
671
703
592
497
431
487
559
678
1360
720
586
578
529
603
561
666
678
768
727
755
597
716
569
629
738
912
747
595
381
638
752
624
398
3583
527
555
549
650
651
673
548
547
558
654
632
725
1387
690
578
565
485
576
599
695
610
647
624
679
609
710
576
593
625
730
687
727
533
462
397
474
487
3535
554
637
658
715
629
701
650
656
501
438
451
485
1222
539
432
541
592
849
1099
1216
989
643
416
528
2027
806
615
493
387
396
403
562
491
469
417
597
704
887
528
501
402
403
385
446
476
594
619
717
659
705
815
681
472
442
412
473
457
495
602
797
759
749
3523
651
649
806
847
886
753
647
491
460
421
427
386
1566
400
442
464
508
486
613
584
614
594
692
604
587
719
793
835
871
639
589
483
575
593
663
635
651
1316
731
690
707
544
511
443
464
535
535
490
469
496
1621
628
703
592
527
496
694
720
717
593
597
523
560
593
414
400
462
467
501
446
555
575
639
613
662
3509
789
783
749
663
771
709
509
394
498
606
642
544
1616
694
1001
887
639
403
444
385
460
472
613
684
3573
766
758
626
554
475
486
529
640
616
649
419
405
1227
752
720
731
617
674
575
575
525
496
416
426
442
613
497
580
551
633
618
809
863
915
765
778
725
3556
458
421
427
545
579
598
511
464
433
474
463
505
1178
530
550
615
657
773
730
812
733
704
637
717
674
751
574
635
603
614
540
592
562
497
452
430
411
3606
492
466
407
438
439
528
560
667
704
743
771
922
1392
715
548
497
400
419
429
637
817
1008
1013
1062
2579
914
610
526
471
459
403
417
400
427
430
511
446
640
523
588
561
641
693
832
659
431
533
431
431
3488
673
727
659
677
640
710
657
659
603
636
566
605
1370
720
659
675
492
417
402
571
640
679
665
685
595
671
576
641
626
644
542
563
550
618
573
595
560
3425
597
535
477
511
559
627
592
573
477
511
609
754
1387
646
432
400
455
624
619
625
535
542
450
511
500
688
559
546
459
459
441
486
533
675
623
646
648
3450
758
745
669
665
577
586
507
584
592
655
573
703
1389
653
511
558
570
630
679
793
850
947
858
702
406
654
622
445
477
631
697
745
453
779
978
753
412
3246
720
805
942
1121
1149
1104
789
815
791
711
462
3583
431
496
555
410
391
496
510
543
589
715
659
847
1391
1013
779
675
432
433
470
536
466
523
535
669
3219
721
511
443
615
487
479
444
463
558
464
495
437
1662
728
769
693
671
611
670
668
753
705
690
646
721
786
695
543
576
578
638
626
679
629
656
550
640
3238
754
662
656
549
462
417
432
429
523
576
617
593
1653
531
573
611
720
704
784
713
721
598
560
432
421
528
555
650
832
769
735
645
603
432
432
403
477
3295
644
610
635
583
624
579
624
579
631
582
624
592
1682
849
1087
1083
949
523
653
820
453
426
546
624
2128
833
837
669
575
475
433
468
438
411
506
495
569
865
829
850
861
715
591
460
437
422
413
419
565
535
798
784
831
638
566
498
590
502
500
438
511
653
3383
926
884
741
668
549
507
473
576
555
468
432
509
1204
759
576
468
415
478
574
703
565
541
451
455
459
688
822
1042
880
842
689
640
496
489
483
593
560
2101
567
530
528
650
651
665
529
572
539
625
653
505
663
500
511
511
459
501
430
490
465
542
592
720
734
816
689
636
562
557
522
571
639
705
694
661
442
3225
557
643
720
885
849
791
574
452
448
464
426
511
994
611
591
653
625
683
656
673
567
573
570
699
618
922
710
695
543
523
452
486
477
561
528
535
502
567
704
761
720
768
650
570
427
421
439
510
494
613
3163
748
647
540
418
462
495
591
563
624
592
641
594
1722
637
704
679
727
717
806
700
605
449
528
615
688
653
562
531
705
711
635
467
454
432
472
461
491
3136
713
626
592
556
691
721
920
911
880
565
450
444
1661
563
659
640
625
450
447
414
464
483
495
481
470
574
735
940
967
736
598
437
507
604
762
778
848
3057
727
460
478
731
986
889
431
478
625
624
742
702
1773
726
758
663
703
603
605
543
553
502
528
511
629
807
744
489
511
450
500
583
576
529
585
595
715
3178
944
797
771
620
627
560
613
563
585
511
537
440
1642
414
482
450
506
537
645
627
651
592
552
449
449
577
563
560
625
491
534
614
736
689
763
650
632
3039
638
685
741
646
642
597
683
679
726
704
667
550
1638
576
699
743
864
699
663
528
469
439
431
455
640
717
735
675
654
511
464
423
434
476
583
570
610
3071
675
624
645
624
636
571
680
624
592
450
445
423
1680
511
627
615
675
575
592
569
613
555
597
561
624
688
755
962
1232
913
554
1042
1053
427
640
688
811
1133
1209
1339
1389
1059
753
456
538
701
748
529
448
611
665
632
633
548
551
553
579
502
496
678
455
2992
773
547
582
677
697
534
468
481
501
482
555
511
1696
613
672
656
733
657
624
557
617
633
818
780
708
605
527
482
522
497
478
432
505
652
840
856
942
3105
754
511
462
431
469
457
533
483
522
496
535
541
1747
527
606
697
833
654
597
477
505
496
657
656
742
881
885
678
623
531
491
429
447
423
465
474
576
3026
657
608
623
566
593
549
573
577
652
567
672
653
1734
682
680
623
612
547
572
511
581
566
583
486
535
626
656
610
642
595
658
736
812
734
751
568
631
2969
535
438
502
544
603
582
614
583
667
655
619
563
1744
775
828
656
576
511
474
502
462
448
667
912
1067
848
639
1641
1577
996
462
511
597
686
995
1090
1105
1022
939
848
798
641
592
538
679
670
615
527
571
1117
619
556
573
480
465
474
656
703
793
771
726
547
625
487
480
428
464
461
450
481
576
571
607
509
3083
654
741
704
791
867
1078
1069
951
608
534
469
797
561
491
485
491
444
451
435
590
718
818
651
654
3016
583
561
640
582
601
624
684
704
782
689
638
448
1762
411
475
483
593
601
638
618
670
653
716
676
695
716
683
699
997
1007
939
625
496
965
720
496
631
2047
634
511
498
459
534
554
652
574
599
589
626
617
913
669
701
672
742
667
642
509
501
508
624
770
992
1154
959
502
639
979
789
461
640
745
945
913
765
2112
725
666
640
498
525
477
496
437
460
449
554
541
870
634
674
621
670
640
691
645
663
625
606
496
561
654
656
592
526
554
545
571
698
723
848
787
799
2867
624
582
698
720
748
625
599
496
469
427
449
449
1744
506
496
525
670
635
647
625
636
539
538
494
560
592
567
519
592
571
586
546
593
499
561
526
485
2826
645
697
803
777
817
690
613
494
498
476
496
509
1803
695
759
688
752
683
669
629
666
636
634
625
784
1041
1036
817
734
597
661
573
479
442
454
533
551
1004
461
465
535
432
445
467
505
532
620
608
655
628
818
672
613
579
530
444
471
579
818
799
832
753
2914
690
794
784
757
671
668
586
561
431
458
429
511
1157
707
678
783
682
661
546
502
453
465
480
570
560
709
609
656
635
687
671
710
624
619
556
587
573
2833
827
912
867
827
543
543
556
496
510
645
667
899
1397
770
619
554
495
479
550
490
450
577
832
1278
1225
1014
613
523
587
706
675
752
732
754
756
927
1034
1390
987
724
458
1121
1383
1162
816
473
452
501
487
626
496
510
493
501
544
565
483
555
593
675
619
2859
690
730
679
726
703
720
656
720
699
773
793
843
1192
560
465
550
622
778
694
715
591
472
496
745
827
645
534
492
503
770
848
879
729
670
586
593
498
2782
469
493
475
546
548
587
560
600
490
528
540
559
1123
563
586
674
657
751
615
659
610
685
656
606
587
912
948
994
755
756
692
835
871
848
717
674
569
2738
405
487
464
448
442
467
464
464
448
511
474
528
1147
573
549
594
587
656
626
688
628
669
655
737
794
1104
994
992
820
702
534
496
453
477
465
485
448
1792
558
637
695
835
816
805
627
528
482
560
571
624
832
718
662
627
655
925
913
752
603
623
638
694
636
653
486
491
475
539
573
641
661
739
640
490
531
2631
590
638
615
646
506
658
816
1039
821
637
467
491
781
619
555
533
528
656
628
702
679
705
570
590
592
801
745
838
703
577
434
567
437
629
610
545
498
2651
677
665
438
754
577
526
672
742
698
719
622
684
1397
861
795
823
767
762
688
751
655
546
535
590
549
617
505
605
539
594
685
761
720
703
580
547
496
2707
469
543
595
720
718
746
784
880
738
694
690
597
1037
490
463
503
500
565
507
550
582
596
562
591
576
763
648
675
527
578
555
637
623
654
610
601
598
2559
697
720
634
613
545
589
614
738
785
999
1020
995
1022
755
707
525
704
688
432
640
725
779
607
524
2608
667
639
679
643
695
750
816
819
723
528
496
423
1777
403
451
427
458
439
474
505
700
912
1092
665
603
400
481
478
646
720
799
705
629
588
580
543
582
2239
666
678
768
678
640
468
464
464
511
498
481
466
752
642
783
756
715
480
571
658
816
784
813
748
793
889
720
455
463
550
798
785
800
641
521
479
481
2503
741
730
683
542
530
428
554
621
672
614
675
591
1840
572
643
544
587
541
628
700
815
764
688
550
511
595
577
511
579
624
636
622
674
592
656
623
661
2460
701
619
683
706
833
800
845
835
873
699
624
547
1793
629
705
448
504
558
559
529
534
501
571
494
589
791
906
850
816
639
703
759
839
758
737
637
579
2438
511
463
511
526
592
568
605
503
528
555
624
617
1841
603
736
678
688
614
677
482
559
686
813
629
580
590
624
602
704
719
815
721
685
527
486
442
476
2487
438
429
443
495
551
496
543
537
610
538
544
511
1853
653
677
613
636
551
556
719
974
910
867
742
629
604
686
752
815
582
459
390
598
727
873
848
911
2559
826
636
688
737
734
790
868
759
531
911
1666
1455
839
576
787
771
858
813
757
577
560
499
633
671
2429
683
627
505
546
466
476
451
663
660
645
638
758
1393
895
865
912
733
591
428
442
422
464
485
576
624
884
730
734
491
479
545
624
541
609
576
615
559
2533
725
880
730
687
597
603
595
730
611
636
563
560
1135
624
595
566
476
511
499
567
585
610
475
450
400
511
458
547
561
748
835
804
561
432
482
807
938
2718
885
742
644
669
698
694
551
466
389
419
466
421
990
466
426
496
507
560
487
551
575
616
605
881
915
1168
895
639
403
496
449
718
794
860
774
678
544
2454
799
842
713
717
560
607
640
635
562
669
684
791
1388
735
683
590
445
483
406
528
491
497
563
784
804
1034
875
818
633
664
571
543
402
412
384
497
504
1841
499
575
590
725
654
801
953
1008
756
576
412
416
495
560
624
738
684
704
610
665
594
633
506
545
2291
690
700
675
574
622
586
557
411
406
568
782
778
1907
529
484
427
454
447
601
593
661
653
735
744
867
1023
1072
1023
1094
879
555
425
562
429
398
432
443
432
401
414
443
525
624
677
762
741
848
801
738
2307
511
461
528
550
771
849
947
877
738
400
493
381
1821
496
549
510
579
594
791
837
1010
815
580
487
2423
410
613
560
503
563
875
855
734
417
416
464
592
1169
656
718
830
739
724
642
661
558
558
526
653
644
908
819
807
662
635
531
434
411
400
373
451
496
2350
754
837
683
557
586
756
770
813
698
641
559
661
1301
734
679
757
681
591
450
477
400
461
447
545
527
735
643
699
619
592
528
503
460
458
444
479
533
2243
848
903
581
402
416
509
678
899
917
1058
891
812
829
554
398
407
387
399
382
567
532
623
511
437
390
560
496
605
551
615
592
636
611
722
752
848
693
2311
489
414
509
703
735
736
560
546
427
455
429
498
1133
606
595
691
660
661
595
688
652
727
699
773
821
1001
766
688
417
385
373
407
402
467
480
576
615
1946
678
575
382
390
464
741
804
912
799
713
631
569
784
712
645
593
535
576
454
462
457
496
468
574
556
825
735
752
682
656
541
525
496
552
511
560
569
2122
727
805
719
581
368
433
486
624
634
726
730
793
1409
875
611
435
350
464
528
711
749
806
701
654
542
685
499
557
473
445
419
399
470
561
496
569
548
2097
479
478
703
917
865
835
751
765
720
667
431
447
1055
479
448
487
668
883
859
809
454
506
563
438
401
717
582
613
624
789
806
836
754
666
560
435
397
1965
656
816
827
897
801
790
704
773
715
701
592
560
1085
437
432
499
511
642
582
611
474
576
557
494
387
489
426
447
433
531
484
539
531
599
606
688
593
3661
720
660
660
814
816
720
618
625
453
374
366
470
1136
679
715
855
784
783
688
733
592
565
482
502
448
641
499
551
531
574
581
687
741
857
752
688
539
1983
545
702
709
847
867
806
560
551
564
505
387
393
1072
576
644
810
853
934
818
481
403
542
368
462
491
734
631
624
405
396
381
420
370
446
526
783
913
3715
1013
1212
1173
1131
633
400
408
391
449
480
448
1906
489
511
469
573
599
738
786
990
976
817
450
482
773
407
480
608
579
635
683
806
784
817
662
681
586
673
591
758
646
656
598
564
511
629
589
595
485
3797
499
511
469
581
645
764
701
733
562
479
493
529
1092
592
671
689
572
647
655
679
503
467
443
511
403
536
460
545
511
551
503
456
433
509
551
634
644
2023
755
804
656
691
495
393
382
545
595
703
821
1008
1425
805
559
566
496
528
451
565
503
543
557
673
1762
762
707
827
629
550
602
731
621
667
701
1007
991
1239
624
419
636
535
419
400
371
428
454
595
638
3751
757
842
791
814
646
598
506
496
448
471
452
663
1386
925
1053
1130
882
528
733
423
501
755
976
1208
2160
1008
688
566
523
511
388
382
350
404
425
444
1723
454
447
567
588
592
509
511
575
706
670
654
473
1882
528
604
637
848
800
769
582
662
655
656
593
634
607
482
458
720
651
719
511
454
592
773
607
631
1411
605
480
544
523
542
486
575
544
641
585
645
609
2025
752
720
545
536
496
549
466
611
667
763
624
400
510
433
511
749
663
644
560
625
615
670
538
621
1439
715
664
671
577
650
635
729
704
810
739
735
635
1045
523
469
421
479
538
656
583
688
603
720
688
827
944
836
628
502
498
578
385
455
459
417
432
656
1595
959
816
784
652
671
581
649
628
670
574
577
489
1883
429
510
540
577
629
706
631
503
368
496
380
471
644
629
651
747
720
719
576
596
586
785
790
811
1330
445
391
471
556
719
743
880
877
1008
976
994
782
749
464
554
414
432
511
684
650
567
370
532
704
481
469
477
535
713
762
890
789
670
447
441
397
622
1331
902
1043
923
560
475
377
415
432
447
551
703
659
990
758
777
640
624
475
551
609
735
603
670
491
468
582
931
974
944
708
586
507
614
599
720
733
723
1327
624
647
741
697
679
407
671
654
471
443
416
586
1262
933
919
586
464
390
449
446
560
473
560
582
663
719
686
592
601
487
553
576
669
610
606
570
613
1331
667
684
729
677
701
615
629
466
511
466
571
531
1070
577
622
620
754
565
455
364
496
635
752
625
615
699
770
698
757
666
662
583
624
551
511
465
547
1337
684
640
630
567
567
528
622
592
592
464
528
528
1104
706
752
679
688
589
675
655
784
733
752
475
680
725
403
509
626
545
614
592
657
618
697
661
604
1324
558
449
495
656
939
1147
1202
779
562
410
470
447
567
411
435
467
645
781
918
821
661
391
462
506
3671
720
819
880
821
665
537
540
608
433
427
541
667
1399
431
528
720
789
880
805
816
711
754
635
671
588
739
556
562
570
738
729
835
723
798
706
778
613
3527
481
404
431
623
656
626
409
498
576
790
685
711
1391
781
584
543
388
431
428
577
493
454
399
578
499
526
473
701
747
720
555
588
501
511
461
464
464
3665
589
566
550
597
590
653
607
672
626
734
720
821
1392
944
780
646
446
470
475
523
498
576
496
571
528
690
640
767
747
956
716
475
480
782
704
418
450
3521
690
799
778
819
720
722
656
666
599
606
499
594
1271
634
636
740
638
655
529
568
486
473
507
686
662
810
620
535
400
414
539
781
721
710
605
603
533
3702
532
491
439
509
467
498
467
547
533
573
486
490
1233
720
706
801
721
765
657
606
494
502
418
464
529
720
649
682
618
683
643
721
775
815
767
827
762
3405
755
729
622
656
561
618
545
549
413
416
381
419
1152
525
531
592
499
596
471
430
455
455
467
784
915
1182
899
774
467
423
432
707
778
817
656
653
531
1953
527
565
486
563
555
611
471
496
474
575
542
582
773
896
961
1013
578
444
454
437
505
528
521
567
3465
575
528
720
752
826
702
654
558
623
575
661
574
1138
655
678
578
595
501
495
399
439
464
573
559
618
693
631
510
578
560
711
671
715
660
785
1023
1360
2597
845
413
449
557
503
407
467
404
482
444
610
559
691
544
523
410
432
397
449
450
544
560
597
543
3581
656
688
658
720
643
654
587
609
557
641
663
734
1136
672
511
496
475
576
569
619
598
647
602
652
542
735
591
626
597
709
685
819
702
646
468
432
411
3421
592
621
603
701
602
608
570
666
566
619
571
582
1286
609
511
560
497
569
467
510
480
531
498
543
528
771
615
714
714
866
785
843
559
458
422
423
439
3426
749
763
679
723
617
687
599
652
578
583
523
612
1133
720
621
585
511
569
496
523
396
495
571
654
621
763
640
724
665
844
933
1170
1122
908
437
1375
1719
1408
449
598
839
1159
1163
1095
770
611
528
511
415
586
503
499
413
446
459
544
558
656
505
464
511
3581
501
580
579
687
656
757
775
880
828
823
445
602
1408
443
650
922
801
720
599
644
648
683
539
481
438
499
432
560
582
649
615
693
671
741
624
691
650
3342
780
848
849
959
788
627
462
464
409
432
401
439
981
509
449
499
485
581
610
705
625
589
575
695
730
971
643
741
667
658
542
511
435
492
637
875
855
842
629
447
419
490
629
735
626
691
734
894
651
496
3447
464
483
607
511
559
498
715
613
614
507
500
457
998
490
592
571
709
688
895
853
667
506
614
592
575
618
534
430
490
475
505
533
752
785
868
822
704
510
560
464
687
842
1051
896
1039
942
752
479
539
778
1166
453
950
1076
1360
935
676
537
477
848
1299
928
2052
469
558
623
647
665
641
551
554
405
511
583
752
786
784
836
797
528
443
432
435
431
511
601
758
3221
1133
1046
884
635
528
406
477
445
469
560
851
848
883
482
469
432
449
465
575
546
576
496
491
447
3294
646
721
617
649
639
738
754
899
907
943
640
606
945
447
428
530
574
656
549
581
543
581
533
589
496
816
528
577
583
741
719
814
689
687
560
549
483
566
624
625
582
618
511
522
501
576
562
653
582
662
3238
655
583
611
562
701
689
738
644
656
509
454
422
997
469
527
556
629
553
663
624
687
609
687
667
769
941
786
654
598
511
610
623
723
601
651
752
847
677
821
529
473
503
454
437
559
622
704
594
574
450
3278
483
576
705
885
790
737
489
481
525
447
524
738
1383
831
705
735
564
560
485
511
477
556
496
528
470
655
551
622
539
629
639
759
711
718
590
595
647
3179
912
736
459
720
892
576
422
547
720
955
913
784
1216
743
538
467
482
750
833
745
480
447
415
473
495
688
626
710
655
755
729
801
702
560
428
489
587
3239
539
507
436
482
453
466
440
532
638
741
700
759
1295
738
631
621
531
578
571
595
501
589
560
663
635
834
624
619
528
567
448
538
576
650
624
640
575
3217
592
612
511
567
483
528
464
589
702
752
688
821
1387
926
833
793
622
591
470
496
451
554
624
771
719
816
656
627
562
615
501
557
471
581
496
470
426
3179
610
715
574
601
694
896
746
502
656
537
432
558
1054
656
747
1009
1037
1091
560
617
791
496
450
579
1121
686
674
755
688
686
579
599
573
677
594
611
511
750
662
651
589
597
501
487
451
543
671
934
1009
3233
709
560
448
473
464
592
490
464
423
715
887
955
1056
757
486
487
651
447
454
510
544
621
569
592
3107
593
543
586
497
576
534
613
605
705
638
743
651
1226
676
723
618
684
539
593
537
676
671
651
595
560
572
585
656
669
464
467
524
603
558
594
538
609
3039
818
752
781
624
577
485
493
464
506
546
645
648
1317
695
653
621
720
730
671
432
490
589
720
624
492
496
446
522
688
749
752
511
588
644
752
678
729
3043
694
540
565
615
668
636
595
461
592
507
709
592
1108
450
475
557
1058
1094
1037
599
534
464
468
443
1100
599
778
736
758
594
563
489
545
542
640
559
578
528
722
560
546
673
895
821
854
739
749
656
704
2975
726
636
723
641
663
528
485
560
464
530
740
830
1394
834
631
493
464
459
628
510
605
581
678
670
731
749
640
543
557
496
576
572
575
478
509
454
591
2869
800
819
922
785
634
526
599
571
566
496
494
430
1010
470
562
487
576
595
759
848
954
698
495
566
543
523
487
509
622
624
727
747
882
779
781
587
591
2922
623
639
720
677
733
625
639
529
565
531
577
547
1113
502
455
462
607
627
678
571
625
555
624
608
683
757
666
496
683
800
722
528
859
464
594
662
736
2899
801
783
926
1040
1383
1296
1243
799
525
1086
1153
1432
475
449
564
613
656
592
643
715
794
582
604
2887
689
614
665
642
737
691
705
577
573
567
688
686
1286
625
644
622
672
578
630
688
801
773
797
585
496
499
489
443
465
505
657
481
503
550
597
580
649
2899
688
527
564
528
579
580
721
714
750
706
824
783
1388
547
459
445
528
591
767
799
917
827
863
689
677
727
847
806
686
489
492
434
464
433
466
462
481
2814
679
647
725
647
705
663
675
627
718
670
720
601
1200
638
623
470
483
441
483
474
544
538
666
707
880
957
730
475
455
565
846
928
951
570
505
480
534
2865
768
704
705
589
571
523
553
501
578
591
688
562
1166
687
848
695
670
581
569
465
523
480
563
511
591
624
652
624
718
657
723
647
719
640
727
621
657
2753
710
565
566
542
528
459
507
475
554
502
556
526
1200
622
681
709
863
781
835
699
670
534
575
549
675
850
903
720
653
499
464
449
511
496
579
578
651
2779
826
655
553
527
591
544
715
770
827
612
494
446
1005
528
642
560
646
737
765
710
807
763
830
784
889
908
878
754
912
877
890
705
527
450
464
471
551
2735
622
529
511
483
585
540
638
499
495
485
463
486
1108
544
653
661
787
673
657
528
603
559
630
560
573
633
605
530
595
579
656
562
649
584
590
646
900
2774
1178
901
771
479
464
435
526
531
529
420
489
576
1054
891
1040
933
974
890
953
861
903
634
598
508
2244
493
495
439
746
880
848
688
448
511
625
596
723
1001
911
783
743
567
560
528
617
601
667
602
667
2737
650
535
631
634
755
707
752
672
682
528
560
551
1211
629
674
606
679
669
813
803
899
773
722
528
497
559
671
675
555
438
467
499
618
638
973
956
991
2719
554
505
487
491
558
543
737
766
868
630
528
613
1405
1075
1167
1047
1094
853
695
542
493
430
542
557
752
459
459
501
592
528
481
468
576
560
630
548
594
644
607
546
645
699
832
739
782
683
727
668
727
2677
725
646
782
715
740
698
666
511
642
802
944
745
1200
497
496
434
496
511
592
599
743
719
822
700
574
613
692
636
804
880
794
591
563
510
528
462
450
2715
496
467
567
481
498
453
533
503
624
567
624
566
1173
564
635
625
701
581
713
662
743
665
751
688
758
809
816
730
656
511
594
587
718
720
722
631
659
2647
704
638
660
567
642
618
719
720
751
567
540
475
1041
448
587
604
718
706
755
543
466
449
625
669
753
784
730
612
595
471
640
887
1232
1154
950
483
986
1399
432
683
969
881
926
811
791
638
657
658
789
691
784
535
560
435
497
493
547
483
546
533
634
607
2627
624
620
592
720
647
690
720
744
686
915
917
885
1334
721
595
543
619
969
743
503
628
755
688
784
688
843
683
704
644
731
661
761
624
490
502
473
441
2649
523
703
635
686
577
630
628
699
673
784
699
734
1211
640
528
560
480
526
491
545
523
654
622
711
625
790
695
846
810
826
655
657
609
738
650
726
693
2701
680
710
583
590
483
501
469
475
445
496
491
554
1132
685
665
797
778
817
731
726
562
592
538
592
547
707
607
702
645
720
625
646
538
569
551
587
545
2545
705
849
791
846
496
477
422
511
627
811
819
943
1398
759
579
721
770
862
715
688
550
546
432
464
405
590
495
597
560
656
624
694
646
731
677
765
715
2635
530
546
569
814
897
1010
833
662
467
560
557
688
847
691
641
759
725
755
600
571
471
461
493
439
437
705
795
553
432
596
648
702
701
771
692
752
642
2559
749
800
724
785
669
613
459
485
471
587
572
538
1022
580
676
784
688
816
784
862
798
970
900
834
609
678
441
476
465
599
583
641
579
672
653
739
635
2522
561
649
604
651
565
624
560
720
678
757
656
663
1118
503
474
501
467
569
507
582
583
766
678
755
711
961
791
838
623
501
560
485
485
673
676
781
690
2551
770
863
862
944
816
804
630
627
454
476
442
549
1139
670
627
699
644
533
445
461
461
747
784
784
667
880
736
794
641
623
529
558
464
489
464
612
699
2497
782
714
503
549
546
702
594
454
485
494
765
1053
1391
647
496
674
563
675
687
657
443
538
684
464
2294
746
511
433
490
429
621
960
1051
1171
1070
963
663
630
442
530
503
577
548
647
606
651
566
726
735
2378
667
466
576
469
399
507
455
577
593
609
527
670
964
865
742
810
724
797
815
1017
964
975
800
763
2375
437
400
458
432
470
427
433
422
560
547
649
634
1392
734
755
680
747
676
669
623
677
589
656
729
959
1013
986
800
773
588
585
554
606
555
594
527
543
1765
487
422
461
475
635
592
701
576
641
607
640
547
770
526
603
542
641
643
744
615
641
593
624
511
620
733
751
884
1157
961
757
475
432
578
478
405
531
1750
415
442
435
550
720
690
805
691
736
631
698
607
935
720
768
694
854
794
895
735
447
703
557
481
894
1331
1600
1600
1355
793
495
1040
861
526
412
403
2346
571
666
638
775
641
627
656
880
801
848
723
688
1155
592
462
451
433
525
467
475
418
543
522
599
552
752
640
743
624
708
613
666
555
612
560
605
649
2425
893
976
773
697
560
592
497
560
485
547
528
588
1004
432
446
656
638
665
530
529
442
585
487
608
580
875
615
679
618
689
669
794
726
747
609
641
547
2291
547
544
491
593
511
549
478
490
448
545
528
656
1342
794
667
679
586
651
603
700
610
740
694
736
598
663
544
689
681
675
555
695
711
817
727
854
832
2451
656
496
402
547
395
583
541
675
571
545
412
486
1045
468
481
624
607
649
584
682
690
871
839
807
417
493
386
490
585
735
723
753
688
752
624
688
620
2223
531
601
785
1219
1129
1129
849
928
618
432
719
3312
1437
982
368
635
805
943
905
944
736
719
666
797
874
708
541
577
523
652
593
640
583
727
731
792
624
762
496
436
410
534
575
683
588
586
460
536
499
2194
590
704
646
563
414
503
533
685
730
941
976
1018
1407
755
614
642
511
577
581
625
511
501
385
394
1975
443
382
461
531
637
551
576
540
583
535
581
511
1247
643
716
695
835
750
799
739
752
544
557
400
414
593
718
739
784
703
784
612
597
371
395
432
695
2078
981
848
827
615
591
546
635
559
569
528
614
554
1301
561
654
579
641
603
640
526
573
546
681
752
941
945
795
503
400
400
443
482
714
654
544
464
417
1931
719
695
798
644
665
555
625
576
720
749
906
731
1405
702
510
387
589
753
927
811
785
539
438
510
837
1112
1195
901
636
490
477
525
697
638
681
411
423
1089
419
375
448
413
465
442
534
578
678
587
557
483
692
598
751
754
821
624
673
576
650
574
657
583
2023
723
802
703
754
677
677
511
544
501
665
646
717
1316
767
660
736
656
738
491
400
369
507
433
464
464
699
743
863
778
785
541
485
399
434
442
491
470
3776
671
814
676
666
578
681
601
597
497
615
587
692
1257
721
631
781
768
876
790
844
727
645
531
613
660
871
774
816
543
409
561
957
989
447
448
567
458
3826
585
684
614
736
657
675
613
685
577
581
579
705
1370
848
798
899
642
675
628
763
624
572
437
594
645
883
689
629
432
539
595
739
659
624
400
431
528
1919
720
816
616
573
487
486
400
448
509
777
683
752
1285
774
673
875
821
721
550
579
583
674
685
635
393
546
496
607
546
628
598
675
591
656
611
705
657
3760
606
471
460
560
416
489
649
777
704
631
539
620
1232
743
690
803
711
790
609
673
587
629
542
554
462
669
567
640
574
655
576
738
619
579
436
586
629
3603
743
752
579
614
561
660
572
624
531
581
529
543
1154
496
475
592
670
1010
1019
1011
511
530
624
791
1296
416
570
451
487
653
692
816
735
739
590
535
381
501
390
405
415
474
595
867
855
949
837
912
721
3855
620
592
528
564
432
450
401
493
509
624
683
747
1391
840
816
874
623
592
457
420
374
410
435
558
586
998
907
1074
816
453
408
555
711
720
422
405
393
2447
577
659
631
724
619
646
501
545
476
587
510
556
752
704
638
784
779
894
736
917
705
560
378
421
611
846
624
634
526
511
435
481
461
583
624
725
607
4011
462
529
578
656
673
745
779
879
816
801
467
563
1279
915
880
1008
901
624
827
1395
929
575
785
917
2032
813
563
547
498
640
563
623
543
592
618
749
726
1007
718
699
474
471
400
431
450
496
461
631
624
3903
649
750
640
683
592
650
558
624
573
690
656
726
1344
689
567
655
627
709
698
732
442
439
497
440
573
862
679
639
485
546
507
624
566
592
511
639
752
3617
1279
1387
969
828
451
482
435
400
418
465
418
497
542
511
414
473
480
608
638
730
651
621
448
413
1318
839
835
932
819
829
679
738
603
649
531
572
480
1019
507
579
499
595
569
733
691
763
720
880
881
960
882
769
447
459
455
469
418
454
426
639
645
764
1331
806
649
593
530
649
511
546
432
597
602
647
503
886
593
463
390
555
532
594
583
747
756
912
906
999
1091
950
862
671
395
486
406
467
563
694
645
708
1330
752
639
672
615
625
542
633
686
989
954
939
466
1088
775
418
624
762
541
656
875
1008
744
806
640
3787
631
569
464
511
397
423
383
432
421
594
656
838
1387
567
389
430
496
690
553
635
534
613
580
582
407
652
767
944
819
864
607
464
481
727
786
811
537
3755
491
496
484
563
481
543
470
566
549
669
700
798
1389
843
545
445
369
537
579
715
659
803
742
771
683
764
628
684
651
702
608
651
614
675
591
690
528
3773
556
598
484
451
401
494
463
582
593
739
718
706
1315
570
502
598
511
693
689
760
586
647
631
759
662
915
742
752
482
418
526
449
421
624
565
625
570
3690
658
701
638
727
641
647
534
532
465
703
639
666
1216
562
499
614
581
682
731
865
715
681
558
633
560
730
560
545
410
533
665
951
885
957
779
793
446
4011
799
457
493
659
490
506
464
651
673
745
595
688
1391
775
607
595
583
721
609
654
462
434
422
560
583
886
816
899
725
738
607
562
496
507
453
444
400
3654
533
628
570
725
713
720
511
557
463
575
439
475
1153
562
528
643
539
627
711
875
688
699
591
662
594
845
850
1088
1091
1109
574
749
1226
624
467
733
737
977
813
823
727
866
786
790
543
452
395
421
432
3477
679
771
656
683
548
552
461
491
410
551
528
609
1375
647
630
691
631
889
864
1010
886
737
531
485
3466
589
534
594
482
497
432
430
507
659
575
563
469
1009
462
559
577
762
682
750
667
675
593
698
467
450
557
678
654
718
642
682
545
601
498
610
545
629
3423
704
682
832
752
795
677
710
544
607
560
572
687
1494
1033
816
448
507
535
539
443
528
528
592
553
3583
481
457
499
445
416
569
654
738
498
460
400
714
1399
1040
784
716
609
770
739
770
576
604
523
660
3302
635
464
498
434
591
522
576
451
439
408
444
447
1197
845
932
511
471
688
447
591
887
882
952
731
722
749
754
611
688
618
720
651
707
624
678
537
626
3395
621
593
751
627
617
490
609
656
762
607
688
576
1123
608
720
635
833
812
900
639
506
506
731
800
527
498
506
475
560
507
573
461
563
544
704
619
691
3350
704
584
657
548
714
750
1006
912
1005
780
633
443
567
494
576
531
660
645
702
592
722
596
669
572
3417
617
746
679
684
451
454
407
547
591
608
474
485
1212
578
490
610
617
720
624
735
672
773
677
727
627
866
746
798
539
455
400
475
394
476
464
606
638
3387
807
783
573
560
435
483
447
608
609
699
627
782
1188
827
721
841
787
912
741
567
684
768
419
700
794
997
714
641
448
587
501
651
544
583
607
802
671
3387
592
630
498
556
454
544
509
474
611
653
418
605
1235
912
902
1040
917
941
625
560
436
509
499
591
3325
921
881
899
655
678
565
656
547
577
453
528
492
1094
528
496
411
441
425
623
622
756
741
697
502
509
605
578
631
813
686
668
471
511
477
592
538
592
3302
579
480
560
486
547
566
678
598
721
701
941
885
1392
694
586
443
466
405
450
509
655
528
592
502
623
780
839
670
670
470
540
475
532
449
554
546
617
3265
693
611
712
639
703
540
549
481
592
677
999
1070
1493
839
496
713
560
421
592
634
716
593
656
601
3312
823
823
560
464
416
537
541
643
527
617
673
787
1229
811
641
576
449
537
506
583
558
655
615
642
461
573
453
768
832
1006
793
699
469
468
425
469
418
2656
509
705
704
749
617
528
471
479
400
594
742
905
1041
928
798
877
901
1091
864
773
563
554
418
436
2026
487
415
553
481
592
528
591
530
624
535
551
442
701
475
819
882
1085
768
576
432
421
428
474
485
3367
640
690
560
593
560
679
593
670
583
670
608
709
1168
754
623
597
432
528
495
592
523
620
609
692
612
824
599
662
563
752
881
1232
921
533
1059
1116
566
830
529
752
758
887
805
945
690
555
500
731
640
658
606
559
470
485
450
498
481
560
464
578
543
629
3186
727
633
688
563
595
527
631
592
666
576
624
627
1386
698
653
477
640
673
831
688
610
439
499
529
648
645
714
675
807
715
811
763
812
626
638
495
483
3173
474
427
511
560
752
583
551
433
576
606
467
566
1391
786
815
657
843
817
979
849
974
787
751
495
448
495
481
501
710
601
619
632
666
484
539
493
562
3138
689
633
741
614
646
483
547
555
877
829
795
560
1120
579
723
890
1161
892
563
960
1067
660
455
441
2682
497
707
832
993
752
720
591
630
542
581
448
508
700
594
506
592
573
708
687
752
663
711
506
558
525
762
663
809
688
729
583
588
411
460
428
530
499
3247
641
761
721
874
806
910
692
641
447
526
478
553
1106
713
611
746
688
743
523
511
432
491
418
479
421
661
576
720
563
543
454
592
597
749
669
768
603
3163
683
902
976
877
631
695
528
531
447
497
443
506
1163
699
565
592
496
575
528
656
651
720
611
609
425
609
537
666
588
654
605
715
670
818
734
804
640
3175
450
529
486
554
483
681
763
883
702
704
535
646
1093
542
421
472
455
592
848
1247
1093
886
464
475
2085
894
783
755
564
497
451
511
463
570
507
673
563
975
593
564
443
669
599
689
665
784
678
762
614
686
689
643
531
577
497
602
505
575
489
624
584
699
2982
634
496
560
507
686
647
815
756
794
508
496
421
1037
496
592
631
818
685
695
643
765
698
832
663
624
526
479
472
468
449
560
562
694
597
640
576
646
3024
581
498
560
500
639
635
789
711
768
592
586
528
1253
649
745
645
752
666
848
864
962
755
578
437
495
525
526
508
671
694
768
685
767
688
752
602
617
2927
501
434
496
432
543
491
621
592
704
593
679
575
1186
562
654
679
823
685
621
459
510
435
623
704
779
785
688
624
660
560
641
573
673
666
893
867
843
2938
565
464
532
576
783
787
977
972
1044
835
1008
718
642
636
912
731
492
596
752
615
705
635
775
742
3049
750
737
592
708
665
746
635
688
534
583
546
565
1023
571
464
540
468
501
483
556
511
580
511
640
588
791
651
737
663
708
588
655
545
581
530
609
624
3014
861
943
683
690
496
491
457
621
564
681
694
848
1392
1034
805
716
534
537
498
549
481
510
475
715
2947
730
529
560
541
738
758
890
768
768
579
500
1037
1661
700
494
487
594
506
617
554
656
641
785
704
2958
715
746
566
594
563
659
726
912
767
742
501
470
981
576
510
714
819
947
751
641
550
634
509
528
541
925
625
834
881
846
624
634
529
595
546
629
573
640
677
659
570
643
564
621
571
739
755
867
704
560
3051
498
624
958
1003
1379
1248
1197
909
599
719
921
2679
686
479
511
571
720
619
605
500
595
576
695
633
1045
646
695
530
537
491
609
599
771
679
735
588
2919
591
627
578
685
595
689
618
673
599
649
546
567
999
540
511
775
714
799
688
690
522
588
500
599
523
831
574
704
654
749
669
710
673
752
708
702
500
533
495
489
568
764
779
1013
873
939
802
828
657
624
2110
523
433
644
585
657
588
634
481
497
476
557
508
880
579
697
640
742
690
786
678
763
658
791
688
791
710
533
442
528
509
607
539
538
495
830
976
1034
2875
830
490
567
505
560
532
573
534
608
495
563
538
934
651
741
715
807
751
830
801
919
768
745
479
589
526
574
612
731
674
802
733
763
658
710
631
705
2733
642
576
681
592
603
560
630
584
641
559
626
500
1198
557
645
597
672
532
623
589
682
605
701
608
703
720
673
571
686
553
686
686
813
720
820
668
749
2705
849
817
782
590
508
725
613
431
592
591
733
688
1361
595
609
583
755
652
696
547
563
481
560
511
592
666
694
596
688
623
691
599
667
545
686
703
870
2713
966
838
720
487
544
496
656
790
1095
944
1043
893
1136
783
707
496
479
641
735
816
667
461
598
668
2798
432
511
437
638
592
592
555
770
783
833
656
690
795
673
615
679
562
624
608
731
738
871
810
835
566
699
659
922
851
800
573
687
565
498
443
485
432
2758
439
576
503
712
752
832
640
721
634
699
599
632
1125
622
551
656
581
687
667
814
793
798
720
944
902
1089
715
531
448
576
588
685
551
591
442
528
491
2960
592
646
535
637
553
638
565
678
592
673
592
698
912
816
634
632
510
570
574
688
628
710
624
656
575
816
678
688
566
600
613
711
544
651
561
720
736
2731
688
730
624
740
661
736
608
655
576
576
475
509
1146
630
509
581
560
618
560
666
641
778
630
656
583
816
631
691
598
694
644
741
650
740
579
555
441
2685
586
683
577
672
589
678
685
774
683
755
645
671
1096
582
582
691
683
832
688
848
487
494
437
646
775
912
650
714
653
744
609
659
619
666
586
704
656
2709
865
827
511
560
523
464
549
753
757
830
578
496
1066
487
546
673
656
791
716
794
675
828
785
879
667
646
477
462
494
720
636
695
661
745
637
718
707
2683
721
757
611
737
692
826
691
711
572
594
496
571
1088
694
625
697
477
546
475
511
435
538
462
574
527
723
595
687
671
861
813
1127
1023
817
592
657
523
1321
649
735
619
606
422
531
506
624
562
558
446
496
625
768
661
715
594
703
641
737
642
781
637
687
2473
610
466
529
487
554
418
499
449
599
559
660
587
1264
631
752
688
791
762
945
885
957
703
675
531
495
506
623
605
730
642
728
627
678
587
705
645
732
2522
880
752
791
511
464
494
465
492
545
508
619
571
1362
670
739
608
720
657
773
674
826
855
1072
911
854
451
496
478
609
605
737
727
823
737
836
664
629
2219
484
464
613
474
598
537
641
623
703
560
567
465
776
541
546
416
460
443
597
542
694
662
816
711
707
576
579
599
739
614
688
576
649
576
682
583
665
2325
816
726
809
640
641
561
750
773
879
739
770
597
1263
710
809
670
734
674
831
720
807
602
613
445
451
498
454
405
462
444
532
451
541
506
576
546
645
2523
808
758
870
704
801
688
782
675
716
560
597
560
1395
691
835
741
774
492
480
496
759
702
855
770
811
784
848
835
992
576
492
559
471
448
573
548
630
2358
615
502
601
562
738
752
916
802
903
784
714
466
1168
615
723
652
641
411
455
426
635
716
803
635
640
511
478
437
703
748
851
854
983
720
591
448
464
2292
614
538
640
607
784
816
1036
952
929
724
604
411
670
445
496
435
543
442
531
571
774
774
901
780
775
625
566
465
501
464
608
631
816
790
875
611
573
2343
803
714
686
432
497
465
605
646
796
562
543
547
1392
611
626
539
635
533
653
627
714
576
641
627
814
883
944
727
763
681
802
659
718
524
508
431
573
2198
564
592
571
388
477
460
531
433
545
468
582
558
1392
773
891
737
724
719
890
815
900
705
747
554
595
543
586
842
490
422
591
593
716
609
694
588
679
2350
1111
1091
1136
857
736
544
569
636
817
666
660
2275
555
411
481
434
503
453
571
524
659
634
802
758
1395
786
845
656
617
528
661
533
559
400
496
465
576
628
696
595
677
542
599
474
575
542
669
638
793
2179
847
683
758
637
757
639
687
524
564
483
592
490
1223
502
539
381
418
403
615
654
800
625
726
627
752
708
699
661
814
755
880
731
836
754
880
714
773
2187
592
545
461
368
464
555
695
561
593
465
605
577
1381
731
811
487
464
432
572
592
683
615
734
621
656
478
543
434
479
562
684
594
743
629
756
702
812
2173
711
604
688
561
636
558
642
581
663
621
754
656
1379
662
768
607
587
396
489
497
602
624
823
747
784
735
723
601
720
673
739
594
668
526
499
349
428
1965
511
467
591
541
594
497
653
585
801
662
544
363
1057
548
938
954
931
823
1088
1241
1443
784
451
737
1100
415
528
471
590
499
551
491
553
478
602
577
666
736
976
917
912
669
589
432
511
427
502
374
405
2047
481
613
784
623
695
613
765
688
813
680
653
497
1200
624
650
464
560
406
559
625
902
923
1007
626
2287
436
620
752
754
449
454
454
607
611
805
675
763
1344
816
672
699
610
705
482
453
393
569
624
730
612
784
390
417
384
593
669
815
685
816
621
564
417
2075
704
967
806
911
733
789
654
694
562
599
391
476
1195
755
657
718
582
549
409
455
422
511
426
503
444
644
526
566
477
511
525
672
603
682
657
809
710
2279
701
735
543
600
500
608
587
703
640
733
594
686
1235
618
470
576
501
624
511
574
529
669
587
613
577
805
634
671
675
804
704
769
693
811
778
790
463
1826
436
665
688
826
586
554
493
596
592
600
555
774
1393
940
736
997
1008
931
482
446
841
576
397
457
1739
705
667
847
768
853
774
967
784
822
615
686
563
1313
557
525
385
443
451
637
566
640
529
551
455
573
642
638
562
688
608
737
643
754
705
850
755
854
1936
930
848
1036
727
857
841
1120
1102
1131
609
559
1834
426
551
582
586
435
397
453
421
550
449
464
395
754
477
640
592
635
438
493
535
676
581
495
435
669
885
995
827
891
721
991
959
912
641
659
485
496
1395
698
624
768
699
773
607
774
674
752
511
529
479
1273
592
720
639
749
602
621
438
477
445
554
389
439
613
743
629
701
592
675
533
592
463
539
496
612
1527
636
558
715
597
671
560
665
559
674
592
721
626
1401
725
805
823
1128
1168
1074
428
1456
1363
496
730
1001
730
602
572
781
758
883
688
677
576
703
795
3100
1088
1059
703
595
368
447
366
429
464
597
502
3893
579
691
585
673
577
661
595
630
534
594
532
628
1245
786
758
909
850
963
742
661
414
511
484
643
592
736
688
965
881
947
762
560
507
675
503
435
422
3830
547
639
585
676
561
628
497
528
359
391
442
607
1192
667
557
695
657
867
875
1070
864
784
578
590
1334
673
597
720
592
671
558
640
560
643
539
640
557
1360
558
560
487
573
496
704
674
781
631
469
390
533
663
769
696
905
671
797
653
730
649
774
636
655
1335
695
560
597
554
743
736
816
469
566
675
426
451
1328
626
779
755
919
763
860
776
882
554
558
571
807
858
800
408
996
775
506
641
801
706
734
577
720
1607
1067
966
938
684
695
560
608
475
571
554
779
654
891
527
563
448
488
402
498
417
623
607
742
619
731
791
796
606
702
606
720
558
592
464
496
400
477
1325
674
572
659
534
667
623
819
730
702
597
719
598
1252
448
567
623
811
701
719
563
694
635
788
663
823
695
525
429
533
449
479
383
448
434
528
400
432
1335
846
753
791
622
743
603
670
551
624
551
743
779
1503
976
844
389
434
390
540
538
631
538
618
511
709
813
816
610
526
420
579
530
650
567
688
654
740
1341
666
500
733
769
928
785
887
623
595
495
625
542
1143
551
704
653
748
565
531
445
487
397
496
489
726
777
554
442
464
439
807
757
585
464
720
788
858
1326
627
563
761
722
860
768
741
483
495
461
615
560
1278
574
718
651
846
742
767
523
447
411
511
527
699
722
751
591
640
503
556
503
578
464
639
610
767
1334
796
650
700
546
579
482
592
507
672
649
818
640
1283
720
722
471
542
482
615
585
757
822
1005
746
1936
872
960
649
581
383
534
649
561
511
426
405
528
1293
735
563
560
445
509
556
778
701
837
704
848
769
1123
935
874
450
443
385
502
522
683
614
715
683
3140
720
682
466
579
577
832
787
949
783
803
624
597
701
592
493
611
530
656
549
565
389
453
445
583
455
691
559
637
537
542
451
621
638
771
681
821
689
3671
663
674
571
624
555
692
573
653
585
755
784
826
1187
494
394
560
672
780
431
624
511
497
505
735
661
909
693
819
666
771
656
736
543
654
525
639
591
3632
577
675
607
725
645
759
645
670
480
549
487
656
1328
720
538
639
592
642
496
611
535
585
483
578
567
734
507
742
709
880
684
624
507
645
567
658
534
3655
537
545
493
618
549
683
619
752
656
747
591
704
1367
732
611
790
720
717
507
587
475
571
487
592
622
922
703
667
397
490
401
683
711
837
677
733
559
3579
566
624
580
695
754
967
881
903
511
502
407
467
1160
640
627
839
795
945
729
768
688
783
485
464
610
552
416
448
409
464
525
851
819
912
689
752
565
3731
572
611
434
471
450
727
678
702
496
598
631
833
1392
650
432
511
590
805
790
994
858
859
554
544
461
659
527
560
482
644
669
868
854
908
528
655
629
3665
496
473
395
669
720
903
715
707
569
667
535
566
1146
557
464
592
542
615
540
673
589
683
588
682
577
743
487
578
557
667
579
687
521
610
485
688
647
3461
690
837
629
637
469
586
479
617
559
720
626
769
1268
1023
785
637
550
539
402
569
560
720
677
816
3458
692
550
656
555
640
587
769
711
834
721
816
663
1167
526
702
674
823
667
720
581
625
491
597
511
598
601
576
432
485
432
555
426
558
603
650
511
615
3458
753
592
649
551
689
627
759
682
670
450
496
485
1243
656
729
568
613
495
557
464
569
496
631
554
656
718
723
626
769
682
958
917
948
418
937
1073
491
2439
926
759
913
720
773
624
688
578
652
495
604
532
923
651
742
570
654
477
533
481
592
528
629
502
604
608
629
503
629
573
678
599
704
569
698
619
717
3277
978
829
886
534
479
415
576
598
745
597
609
476
1136
586
907
911
1166
945
939
656
552
429
464
423
3516
479
529
465
608
505
614
581
731
674
870
837
1055
1521
1200
681
469
420
482
451
585
396
560
591
701
2090
880
735
883
736
779
595
624
443
537
542
666
527
725
411
553
511
678
623
711
602
722
624
784
643
745
759
816
640
625
451
528
429
480
463
617
594
687
3412
734
546
560
413
489
400
477
433
587
686
895
752
1394
615
563
479
609
560
656
542
611
534
688
641
725
657
654
578
689
579
710
640
816
637
656
559
617
3245
651
564
701
565
615
629
851
875
1066
851
608
421
798
506
661
528
725
662
735
541
586
503
617
484
570
577
602
538
823
734
848
687
711
546
636
464
538
3315
621
493
562
554
740
653
720
589
656
550
667
442
992
419
531
471
639
564
745
729
917
825
938
749
705
688
570
486
624
571
739
747
1062
830
800
425
532
3519
560
672
976
707
669
551
695
625
775
595
690
620
1343
678
789
656
655
568
794
624
566
414
530
725
986
931
843
554
511
427
511
545
477
414
477
404
511
3288
609
511
614
559
706
624
646
559
637
610
750
618
1308
557
784
663
585
469
639
592
709
656
733
624
816
786
789
741
900
694
677
464
502
428
540
566
688
3262
741
557
627
528
557
459
543
467
639
618
757
576
1401
774
976
742
702
493
589
475
503
451
674
613
717
661
711
565
597
535
712
576
628
496
606
511
603
3147
605
531
666
570
673
586
633
498
628
582
687
569
1219
432
602
805
1232
1173
1041
464
496
434
592
551
1391
701
779
633
725
631
726
623
703
506
523
433
480
559
847
941
898
812
1088
847
621
432
486
438
486
2069
555
471
578
488
615
560
746
655
802
703
727
525
816
576
729
555
592
464
558
496
579
451
532
485
746
778
807
635
691
559
635
535
669
560
629
489
547
3071
709
640
819
656
531
451
475
450
604
538
638
571
1298
619
822
734
967
790
870
667
767
619
709
562
625
551
541
503
639
572
761
652
811
703
768
511
551
3143
692
560
621
454
511
480
602
447
658
724
459
436
1232
603
679
610
759
674
861
814
929
747
861
509
656
864
1088
849
624
669
978
571
592
655
875
705
816
2096
886
783
881
671
657
453
507
434
528
447
560
554
1020
711
784
528
552
526
792
727
875
718
848
751
3255
588
718
595
671
574
698
577
671
503
575
448
523
959
511
438
577
523
619
496
614
509
632
577
701
694
1317
921
924
626
687
590
688
532
601
496
590
536
3184
573
655
557
624
510
534
410
592
599
747
615
674
1046
577
542
642
543
607
499
621
542
634
548
656
576
861
722
851
687
678
555
759
661
780
566
589
445
3088
591
671
560
673
565
704
602
641
466
547
490
646
1137
783
800
1122
1121
1387
816
657
477
547
436
542
1088
575
427
541
496
652
587
693
560
687
481
651
672
1009
896
1101
727
592
567
542
448
528
510
670
586
1408
689
755
699
895
690
722
497
496
481
507
635
837
816
880
711
722
480
529
481
715
722
910
713
830
3053
811
670
659
456
499
432
543
560
656
473
613
531
1245
545
603
511
657
585
714
589
681
561
704
763
932
818
845
640
650
534
637
478
495
432
530
563
824
3014
880
734
816
711
821
688
733
560
668
511
592
483
1285
482
573
505
622
496
562
481
606
546
638
498
610
797
1086
1014
1153
637
567
429
478
427
541
463
688
973
1011
757
605
561
497
471
742
688
729
503
580
2919
930
756
815
634
720
614
681
539
688
595
750
596
1374
498
511
463
639
593
669
581
720
663
931
967
1233
1157
1066
717
594
453
480
443
570
560
701
638
800
950
752
487
496
444
619
679
770
528
569
447
511
434
635
542
608
511
653
551
597
528
608
537
775
724
3111
701
631
533
665
604
764
587
723
719
835
665
690
1022
629
573
820
646
779
619
707
547
626
484
587
499
717
573
678
558
672
587
738
689
842
693
769
528
2915
593
925
887
845
450
624
451
743
685
783
674
708
1175
727
594
675
486
511
433
528
447
539
509
631
544
787
575
656
552
663
578
688
657
854
785
960
735
2925
774
769
625
669
499
502
455
509
455
597
511
571
1049
673
506
667
594
710
605
752
640
801
677
755
646
860
684
800
641
735
612
727
647
758
710
877
711
3031
659
720
466
501
477
508
442
485
545
831
779
832
1185
671
523
597
501
628
576
748
699
777
539
552
477
830
720
688
590
819
774
861
675
798
652
761
671
2935
734
710
530
545
430
491
555
592
454
496
434
593
1232
915
738
831
730
847
656
688
653
722
570
606
463
643
470
511
496
582
485
554
511
624
545
703
630
3031
778
955
901
1019
716
592
447
543
528
608
438
546
906
977
909
1008
736
810
848
1101
923
930
577
562
2225
500
539
485
431
495
435
560
487
655
566
704
593
1095
758
935
766
823
613
629
471
575
507
642
478
2815
458
641
585
779
637
747
620
769
717
873
721
848
1164
608
455
649
631
737
588
707
586
656
599
784
731
962
611
656
511
591
498
650
567
688
585
628
485
2901
526
725
657
762
606
651
587
734
662
741
539
629
1121
725
671
819
750
959
958
1019
644
573
433
564
2765
883
720
707
528
610
554
773
618
730
672
835
754
1434
573
568
459
527
454
497
432
484
439
576
586
951
1023
749
464
562
502
624
563
682
561
704
640
750
2183
800
683
805
599
689
528
560
511
704
587
741
588
785
499
623
634
880
752
894
751
861
645
669
511
633
688
637
464
631
738
1006
836
880
702
802
656
757
2179
833
656
644
448
539
455
673
698
860
596
609
464
852
546
619
605
863
624
758
794
898
601
624
464
496
529
575
526
619
549
705
577
678
670
888
752
708
2690
511
435
646
704
784
593
791
801
871
687
748
595
1397
593
687
557
688
624
800
671
787
630
770
668
780
654
607
493
592
503
627
579
735
615
806
786
1052
2752
1285
969
944
678
706
506
634
503
527
544
688
967
586
464
721
724
896
705
789
627
650
508
641
539
2765
683
886
741
717
613
722
592
605
446
483
475
599
1195
816
753
862
667
705
574
706
624
800
711
832
675
855
379
508
474
687
591
688
583
643
559
674
582
2741
805
940
800
848
697
825
596
509
435
711
763
912
1398
723
461
528
559
765
637
704
566
710
582
679
511
695
496
588
560
726
637
833
700
879
687
679
446
2753
409
501
448
731
923
1120
759
784
560
605
569
768
903
784
635
767
677
726
582
725
659
849
704
765
581
791
527
555
550
671
627
717
526
649
640
766
608
2669
565
642
554
667
511
605
538
677
603
727
632
849
1406
944
724
693
437
473
483
767
599
601
454
537
467
747
624
832
720
810
656
752
577
633
566
761
722
2785
1086
1226
978
914
544
542
425
492
417
510
451
673
778
854
694
798
565
510
411
557
527
656
534
609
2508
784
687
857
689
708
464
581
550
800
753
861
638
1402
696
857
786
991
762
594
482
511
559
811
704
822
645
685
666
819
629
705
578
655
541
640
525
588
2513
787
688
720
478
511
507
624
490
587
530
704
626
1408
592
511
442
553
677
978
845
879
657
701
571
707
719
793
709
894
705
816
692
865
762
809
511
555
2427
710
630
857
816
994
690
502
990
1008
528
627
704
1141
823
970
799
912
640
827
656
807
651
729
565
2631
536
688
560
615
477
544
441
539
461
591
534
681
1248
825
878
1200
730
671
446
567
528
720
575
608
2494
610
533
770
741
910
783
1013
785
747
541
583
503
901
559
591
446
527
478
783
833
923
657
703
467
511
562
679
598
688
531
658
506
579
433
461
439
624
2442
859
752
848
698
834
688
815
676
766
656
785
635
1399
589
739
626
758
620
762
567
698
571
714
589
694
699
866
734
833
548
561
435
656
643
787
578
629
2357
797
717
870
733
718
429
471
493
733
646
797
625
1393
597
603
407
502
511
679
570
698
550
663
564
634
601
686
562
688
550
690
567
730
627
766
624
752
2413
816
688
821
688
843
699
861
678
762
620
713
531
1395
729
865
582
605
419
540
482
502
547
627
464
664
813
1081
865
897
662
725
615
752
697
898
814
917
1909
880
623
624
461
539
374
457
400
469
419
581
571
1057
762
880
613
595
398
455
397
556
604
830
724
2598
775
963
761
621
379
453
434
733
707
742
479
647
1258
861
686
766
556
560
398
434
378
494
478
628
549
896
722
834
717
929
794
881
684
656
448
485
411
2384
704
784
601
571
446
647
621
839
685
714
528
629
1169
741
609
751
606
727
631
686
623
757
603
731
539
753
560
822
733
823
641
822
704
811
627
672
399
2636
477
842
740
910
869
1114
861
758
399
464
407
539
669
561
481
706
565
635
593
796
614
720
577
721
566
781
566
686
580
750
669
804
675
839
677
810
620
2450
679
710
546
687
622
812
726
837
495
487
747
653
1014
599
624
891
759
874
660
703
473
610
511
607
474
693
511
666
561
732
596
734
596
695
567
625
486
2320
624
757
658
733
589
627
557
693
656
942
926
1115
1359
591
437
623
727
1111
1037
1253
1173
1357
832
470
991
1167
1223
850
451
489
464
617
511
592
496
665
843
831
653
762
598
692
545
671
465
530
454
599
547
880
711
838
689
773
651
855
863
1165
1211
1404
761
925
464
433
511
763
647
687
411
502
441
582
455
597
613
607
507
637
577
754
661
861
703
766
553
602
1855
603
510
509
368
611
720
1099
1008
852
470
597
593
929
732
828
555
634
416
451
371
501
495
637
457
2247
622
788
635
749
615
733
581
694
624
753
658
799
1392
892
767
926
739
855
624
649
526
655
564
683
470
567
368
475
438
608
501
647
604
791
678
844
667
2319
665
845
654
651
503
641
511
650
535
578
368
406
1106
675
576
603
387
466
477
668
511
583
432
632
459
816
679
939
838
949
742
969
853
994
604
511
368
2069
638
1018
1049
1211
894
891
681
653
435
539
470
2321
689
1053
887
624
783
914
501
428
459
645
586
726
891
813
656
792
689
783
595
670
550
624
491
618
487
731
511
643
542
657
554
653
561
694
589
720
565
2150
627
752
662
739
499
611
510
717
643
784
646
703
1199
784
723
848
673
851
726
1004
931
1056
755
511
2276
773
403
671
646
785
603
674
496
754
671
875
662
1009
736
818
511
511
400
497
395
536
573
874
659
2295
617
755
649
768
625
699
558
656
592
716
578
842
1392
950
695
630
416
586
611
887
636
662
475
511
446
758
480
541
459
590
467
571
484
593
508
685
582
2191
626
806
705
862
720
719
425
496
453
822
1046
1406
999
434
1135
787
410
869
1018
1281
955
914
613
734
816
697
595
687
471
592
495
671
659
804
593
589
451
731
484
558
467
591
528
745
676
809
547
689
558
3882
560
659
511
689
630
773
592
688
583
904
715
781
1277
814
637
736
590
698
511
583
451
610
467
578
527
783
577
778
703
769
618
765
617
640
419
500
433
1673
618
749
613
701
560
691
523
705
683
851
645
688
1186
634
560
705
649
802
637
555
385
432
527
758
669
864
663
763
635
819
669
877
794
893
626
640
440
3841
528
711
624
753
606
784
663
814
720
970
821
892
1119
479
529
425
397
539
496
699
590
743
602
787
603
774
487
577
397
431
374
569
527
865
947
1318
943
3777
475
543
368
461
404
528
588
875
741
806
593
758
858
848
635
741
545
617
483
587
463
609
481
672
576
817
648
804
661
703
432
578
555
743
613
754
592
3833
665
831
688
861
720
843
592
607
422
427
403
576
1237
767
632
713
586
619
484
631
496
622
511
656
532
786
599
780
718
867
658
782
548
665
442
567
497
3829
563
638
538
685
592
769
597
747
667
918
883
1187
1488
1217
867
745
403
432
368
444
384
533
499
686
1913
690
436
495
431
599
526
679
606
849
734
854
622
878
479
473
383
508
418
539
567
815
714
852
721
880
782
770
459
481
422
711
677
897
839
1121
909
894
1847
499
537
427
433
643
658
898
735
860
542
456
371
784
493
803
821
1235
1008
673
402
494
389
499
477
3986
608
704
612
893
800
957
713
787
500
622
559
675
750
681
511
640
492
606
528
721
621
798
663
790
683
1020
794
1011
770
752
464
511
432
742
702
815
562
1062
473
443
439
576
537
645
563
862
789
994
687
602
592
647
541
713
571
765
528
689
510
576
432
591
1331
790
674
873
643
759
669
838
711
821
596
636
390
1150
455
498
415
511
464
593
479
554
429
528
528
747
753
816
663
756
538
699
593
762
618
720
574
720
1331
850
729
872
726
910
723
851
637
674
524
688
610
1391
949
1154
747
534
881
1226
1111
481
449
751
798
1459
894
990
671
679
642
1068
868
879
661
880
723
3863
672
573
381
441
379
555
440
528
409
448
385
490
1178
640
562
832
704
641
475
476
555
1043
921
1206
1758
1010
745
897
681
722
471
579
484
656
504
655
576
937
659
671
542
749
637
713
524
576
410
503
523
3679
763
951
749
957
884
933
439
480
667
544
407
560
1391
912
745
867
633
710
507
656
527
596
494
569
451
703
531
633
534
675
538
659
553
726
545
659
544
3662
613
745
571
723
586
757
651
790
611
719
595
714
1351
803
739
848
625
722
450
528
443
598
543
693
589
846
560
720
581
769
588
675
575
720
543
720
823
3743
1057
851
401
445
398
591
545
747
686
773
576
714
846
829
624
679
553
692
578
662
469
528
406
471
455
828
625
690
480
613
505
688
602
786
746
880
684
3840
800
846
567
672
597
791
688
827
551
487
531
452
1127
598
668
944
849
1023
755
647
416
511
548
471
3605
723
589
720
546
721
565
666
534
689
574
709
602
1392
573
733
609
800
652
885
759
942
745
853
595
511
511
436
511
448
432
538
445
592
507
815
817
1006
3583
950
685
647
543
871
784
848
511
483
418
591
555
1001
720
868
688
703
432
561
505
704
554
685
432
3863
546
778
657
824
647
722
576
722
653
807
597
700
1328
921
823
961
727
749
511
624
507
642
479
591
500
741
500
626
510
573
526
765
683
816
579
624
486
3667
572
662
577
806
656
786
653
726
511
588
429
478
1146
487
478
796
829
999
633
612
478
647
497
624
497
827
647
763
579
720
598
763
642
827
651
752
511
3540
511
650
558
667
565
847
718
730
556
705
591
731
1308
615
479
737
627
786
561
494
656
501
418
720
699
1104
849
954
695
752
558
679
487
576
564
737
502
3557
572
749
617
805
609
762
658
769
528
656
571
753
880
880
633
602
445
462
401
459
416
509
511
775
784
1387
1197
1388
842
592
485
496
432
671
485
528
425
801
467
606
476
581
496
657
537
685
547
704
544
679
688
767
592
730
592
733
613
780
624
771
602
722
3299
806
641
834
730
880
639
594
421
590
530
699
603
1394
688
817
639
695
540
695
557
720
537
538
449
476
546
700
576
720
656
868
699
838
674
812
607
752
3321
800
608
688
458
623
507
682
563
723
602
701
496
1396
624
725
542
469
480
485
447
652
563
726
630
805
799
847
641
774
695
989
829
1073
848
878
579
650
1961
535
424
643
554
738
611
761
536
508
641
484
465
1153
906
990
587
496
585
495
535
889
717
747
475
3504
494
576
481
614
489
583
491
656
551
749
695
978
1389
1007
557
473
413
671
570
756
576
755
577
701
3233
770
601
703
560
718
546
666
563
765
623
769
666
1481
949
914
582
540
419
448
433
578
467
561
444
543
567
687
578
701
582
749
590
766
619
729
559
702
3195
780
464
496
432
724
743
977
793
853
609
618
419
1167
430
546
563
720
576
687
567
693
525
617
485
655
653
729
577
723
637
848
784
1053
887
1045
741
835
1098
671
450
500
432
584
453
628
475
622
471
576
511
826
698
942
732
763
457
624
544
678
526
622
500
3452
540
656
583
704
571
853
669
692
418
529
476
632
1309
1095
925
1106
784
799
503
577
496
706
560
660
2002
695
561
681
544
719
535
719
565
730
673
882
907
1369
501
503
600
874
528
484
531
503
455
721
658
3542
645
693
545
686
590
843
712
806
575
671
555
688
1066
671
511
631
542
762
653
717
553
690
587
780
576
714
457
592
547
774
619
688
442
500
413
487
421
3417
470
609
562
669
458
640
587
779
630
753
575
665
1095
818
665
816
637
753
601
754
595
784
638
805
623
843
625
796
570
640
534
747
616
817
572
511
507
3382
485
710
656
809
626
791
627
829
655
876
698
689
970
534
610
1008
858
986
757
797
501
560
459
573
438
547
557
491
434
595
506
645
494
627
563
786
636
3351
699
790
650
768
624
912
791
997
784
895
576
505
976
479
409
566
499
659
560
674
545
757
670
879
688
1105
655
796
583
924
677
599
726
1099
1034
483
529
1416
918
1276
1082
1242
791
803
501
602
479
660
578
1408
628
710
545
655
509
654
532
655
499
638
511
651
653
752
593
784
592
761
632
816
653
795
650
816
3061
848
633
698
496
617
477
576
432
561
457
603
483
1403
619
738
641
792
639
739
511
533
432
544
450
598
653
807
655
842
602
719
562
691
589
768
649
885
3103
988
708
847
565
661
511
733
657
763
530
623
457
1349
511
591
447
560
442
554
511
693
556
618
447
576
571
653
571
761
577
706
619
898
757
922
647
622
2990
869
685
752
553
658
532
656
560
695
561
672
535
1407
593
715
567
700
606
810
635
762
743
1125
890
1299
594
553
486
495
430
576
496
658
654
1007
847
918
736
510
561
496
537
688
473
561
543
726
646
849
717
1179
912
1072
798
832
502
528
507
660
781
1088
750
1136
621
758
551
778
686
854
638
723
449
540
664
3311
563
770
590
787
637
829
656
833
634
762
589
706
1101
777
662
826
641
829
613
673
437
503
417
573
471
812
668
944
709
675
446
545
435
550
528
723
559
3314
717
832
703
938
718
857
656
625
464
608
560
726
1131
771
611
759
581
751
614
770
579
688
527
673
539
758
562
651
478
583
502
628
567
711
589
767
570
3214
690
938
847
1103
871
960
686
752
546
635
505
592
706
592
546
721
589
670
494
678
562
704
527
528
911
739
495
570
502
677
621
847
733
927
751
962
721
3184
817
931
673
618
465
618
638
1019
823
960
657
763
752
634
566
775
597
720
582
738
509
592
459
556
456
919
883
1195
926
951
598
618
461
612
502
555
492
3215
601
838
722
1075
889
1061
628
577
434
549
511
3263
432
649
673
833
601
743
656
835
636
763
597
718
1126
741
589
687
557
734
608
759
624
826
663
874
720
1012
721
816
658
719
466
522
471
663
547
699
579
3249
623
687
496
631
533
741
651
803
630
817
619
720
762
654
499
578
487
637
565
753
671
862
690
829
624
801
567
736
695
905
689
734
477
505
448
553
595
3223
778
898
714
830
718
876
622
671
505
593
466
611
1105
732
635
834
672
800
650
855
656
797
630
756
582
828
641
849
688
795
652
737
531
587
501
625
536
3138
592
816
709
885
720
880
614
675
511
638
493
539
998
633
523
675
583
805
642
803
602
593
493
703
586
1073
739
935
709
791
627
780
507
577
558
960
857
3119
962
877
611
798
818
1136
791
886
644
726
501
532
802
530
503
752
677
944
787
1092
923
1198
733
606
2362
526
507
752
623
686
496
587
464
534
463
618
530
940
600
752
622
752
601
734
560
775
615
750
598
752
695
784
605
727
582
735
634
859
674
852
657
807
2843
751
640
1008
957
1219
837
636
566
539
528
732
592
871
709
822
629
720
587
781
649
808
592
614
496
3183
435
733
737
1111
976
1189
855
874
501
601
567
818
762
712
459
547
464
661
581
786
596
714
595
719
2859
730
566
688
546
703
613
818
622
816
688
900
688
1405
658
795
619
905
881
1201
959
1179
827
847
576
1791
511
528
579
565
464
685
670
907
679
814
676
843
853
701
479
511
463
580
506
630
528
685
565
740
695
1200
840
737
503
723
768
1065
637
638
496
634
565
1392
656
858
662
947
685
693
507
676
692
966
722
770
677
717
562
740
749
1057
879
1072
719
830
541
528
1085
554
459
643
565
739
574
719
594
749
592
815
661
912
663
866
619
687
539
702
545
803
688
880
656
3039
510
719
658
904
721
878
674
816
657
803
635
794
1204
750
560
742
655
811
629
711
497
562
486
695
567
707
453
540
507
772
682
933
796
1023
880
1019
685
1461
598
656
523
702
597
812
656
830
662
768
526
658
613
658
586
677
535
718
615
823
683
866
705
791
2735
784
563
718
560
815
706
880
620
759
560
763
651
1411
757
925
679
816
617
705
576
661
487
619
496
618
610
748
561
647
551
624
466
592
626
924
800
1073
2836
1095
848
1099
958
1392
1273
1441
799
787
1742
1205
587
791
738
946
736
813
557
619
476
535
496
723
2171
821
610
789
587
749
631
811
646
845
718
966
798
1379
899
1008
595
551
455
543
502
751
688
913
784
1968
917
1136
866
1008
657
718
503
705
749
873
590
2947
412
549
460
853
787
1094
772
816
505
576
461
565
707
688
591
809
655
773
560
625
541
597
473
672
502
721
510
695
602
798
646
800
592
698
555
731
688
2967
846
1068
820
969
731
795
571
723
548
686
617
832
945
914
594
641
524
766
669
843
659
815
667
744
498
686
560
709
535
690
560
755
674
849
619
686
563
2881
606
761
623
778
583
725
623
775
556
717
589
809
1238
816
624
814
624
768
594
758
626
817
703
865
786
1142
723
604
464
623
567
816
670
806
702
1052
926
1801
675
611
478
731
612
736
612
738
576
742
657
899
940
1015
561
566
443
740
763
1069
849
897
609
738
1330
943
615
598
445
578
526
681
496
624
487
602
490
770
529
656
533
691
577
746
629
737
586
754
603
2735
663
848
673
858
663
912
791
1063
842
1074
764
777
598
635
502
680
550
779
641
878
669
788
607
781
2609
868
669
853
602
634
483
549
494
526
489
640
551
1408
478
656
531
802
651
907
821
1114
818
965
692
2917
861
1086
934
1133
813
848
656
951
726
741
501
576
511
566
431
556
451
558
431
550
455
614
496
622
2535
726
627
833
664
839
660
784
620
845
716
906
730
1481
714
953
929
1255
855
853
464
750
753
498
496
2778
701
885
690
882
624
720
719
1191
881
771
462
511
720
910
930
1184
699
719
494
768
752
1109
930
995
2320
878
631
759
551
697
585
710
540
721
594
720
605
1039
734
1019
800
989
686
598
450
703
628
861
640
1931
589
704
528
667
486
629
525
674
548
752
601
811
887
880
569
650
550
743
527
571
510
766
595
698
528
881
626
832
695
845
609
753
556
745
577
687
496
2749
613
753
492
701
511
707
585
782
656
837
661
812
1253
915
556
811
677
939
726
995
883
1142
777
678
2702
553
463
691
762
1078
865
953
668
703
511
713
625
1119
842
944
547
562
434
673
561
827
699
818
587
2725
556
638
593
720
607
833
671
939
774
960
654
631
1013
529
440
707
702
875
726
1036
854
1047
765
775
1803
585
458
576
480
676
566
642
467
511
421
644
579
1134
761
937
715
806
641
900
717
848
657
809
624
2672
749
1031
849
855
450
614
1066
560
510
922
807
989
870
964
692
988
752
866
581
857
768
993
796
1050
2459
755
403
503
414
571
507
690
484
656
543
756
636
1083
656
803
619
770
614
784
608
771
592
790
635
2690
720
894
717
917
714
944
761
1095
993
1247
961
916
469
1088
1279
535
464
766
641
832
464
524
400
527
1088
689
610
830
689
976
784
845
592
715
678
930
780
1127
747
869
646
759
558
638
443
573
496
654
528
1927
746
912
672
844
656
950
821
911
637
586
401
578
831
785
528
729
548
653
464
592
583
943
789
762
431
549
426
723
717
916
745
971
739
999
845
1017
645
2519
497
608
597
899
769
759
399
462
451
790
624
818
811
752
486
577
468
642
503
689
605
847
656
839
656
1062
718
853
674
869
644
793
611
703
575
738
505
1872
607
769
598
769
547
617
528
706
572
729
558
682
745
821
624
854
722
899
681
849
633
798
643
838
606
806
496
647
480
651
511
739
631
867
678
869
619
2595
581
742
630
878
711
931
578
594
507
790
791
1149
1413
1183
647
551
444
597
399
599
554
806
649
801
1904
861
577
639
496
633
459
588
468
661
535
675
492
849
588
651
480
759
675
867
640
814
634
847
736
912
710
673
415
546
487
688
564
862
652
752
533
753
2256
1151
849
976
563
554
490
679
592
736
463
571
438
831
522
722
592
829
647
819
720
955
726
879
529
511
542
689
487
678
624
900
784
910
528
628
449
658
2141
674
495
634
545
921
785
935
771
947
654
717
483
1303
451
651
578
850
688
816
491
567
459
626
545
861
862
891
621
784
658
944
787
930
595
751
565
768
2128
977
686
770
479
678
622
866
560
478
885
721
395
1377
576
780
624
858
666
827
624
902
752
966
731
829
645
688
563
770
702
976
863
893
478
657
651
979
2159
878
577
744
544
719
535
580
411
525
391
531
419
1399
528
671
543
751
557
704
540
679
509
705
579
769
730
816
665
903
661
857
645
810
612
812
648
887
2023
730
581
884
769
929
670
880
674
833
590
779
656
1477
673
667
443
546
400
530
398
616
543
810
664
901
848
1004
627
627
408
483
431
720
627
870
685
924
2005
963
624
651
475
544
468
673
555
791
729
1014
773
862
415
473
431
635
431
586
591
1047
1045
1140
825
1425
987
1192
990
1313
1095
1179
592
462
944
730
416
714
550
666
459
600
448
630
529
761
581
736
576
2311
578
762
598
807
567
768
593
729
576
748
592
834
1244
903
672
891
774
1035
777
832
586
646
461
624
1829
720
544
698
500
646
498
733
573
837
656
912
733
1595
1009
1299
1119
1205
607
469
538
459
394
547
579
1184
874
1104
683
695
471
621
479
631
483
650
480
1956
544
768
591
641
439
560
519
764
583
737
549
735
754
759
586
811
660
897
674
821
589
741
559
706
554
832
558
773
589
701
504
751
611
816
640
769
511
2065
580
916
858
1195
1008
1221
910
864
493
590
427
2047
623
950
766
897
624
847
633
749
479
590
395
571
1198
783
594
708
533
647
483
690
465
614
475
774
734
1179
779
593
471
496
587
496
554
1003
897
1165
922
1503
1087
1179
778
802
528
592
454
614
508
735
599
1456
482
477
399
714
688
846
699
991
695
829
643
814
694
800
706
923
621
825
757
1013
704
639
445
594
1923
736
574
737
579
743
551
676
483
743
666
814
575
1023
640
898
773
1005
803
994
765
933
563
571
431
1957
669
882
592
710
509
665
470
605
554
861
667
738
665
551
393
567
573
880
625
743
464
605
439
603
511
822
571
757
638
876
706
779
438
501
459
717
590
2067
739
1031
752
953
781
1010
788
925
739
995
715
917
762
707
562
698
411
464
389
526
416
631
546
800
1535
1132
822
897
754
1011
704
653
397
470
626
491
570
1131
798
806
523
723
604
848
746
965
685
766
487
1924
414
510
464
753
653
839
624
848
641
770
526
721
816
752
581
784
650
846
642
813
590
806
597
763
555
841
769
1157
951
1090
698
598
487
485
400
542
409
1425
621
860
716
930
691
823
624
847
654
895
662
832
662
694
638
938
688
707
373
474
479
770
679
877
1483
862
645
831
558
740
601
762
589
755
588
790
615
1392
723
831
580
784
593
790
674
746
432
592
484
688
685
861
641
756
570
690
624
971
723
848
598
676
1323
783
538
698
556
707
574
835
752
983
612
479
734
987
444
663
563
822
639
826
653
799
646
786
638
874
889
995
846
995
748
954
610
642
467
752
615
762
528
771
555
721
647
1018
720
566
489
491
410
577
509
2013
581
758
537
718
554
773
720
1088
861
930
589
707
672
818
579
924
637
784
510
602
419
713
690
895
3597
874
550
966
704
731
953
1387
1174
1387
886
802
1309
529
410
732
595
723
464
591
417
558
448
576
487
1199
546
702
564
775
624
890
653
763
576
841
699
912
836
802
548
719
702
911
752
978
663
700
486
635
1327
673
464
747
695
953
726
886
691
714
503
620
468
1180
745
1345
1155
1070
462
768
960
597
435
690
597
1396
657
887
627
727
675
800
625
814
626
784
583
728
641
805
619
875
624
741
573
813
548
688
490
703
1329
855
629
854
662
873
723
870
815
852
567
560
452
1322
673
907
496
581
570
464
450
755
592
689
527
723
652
787
596
816
621
738
594
813
669
913
654
706
1314
682
574
853
683
923
731
744
415
553
495
786
635
1392
715
914
736
946
708
874
655
818
560
677
489
618
625
746
546
720
486
602
449
603
511
733
615
1019
1447
1391
1215
1443
955
736
427
496
558
481
410
483
2110
495
405
753
715
1065
825
892
598
606
461
782
656
976
658
889
683
992
858
1135
770
792
528
646
537
1969
662
657
461
530
506
851
765
1047
713
727
642
1082
1095
1256
831
944
546
631
447
598
463
579
428
603
763
812
671
856
720
874
675
880
596
717
523
655
485
730
548
726
557
690
527
755
663
993
803
896
605
1318
454
631
610
851
688
784
464
623
557
823
646
832
1392
839
458
596
473
866
763
891
561
597
477
793
668
902
566
816
553
649
493
592
454
734
623
803
603
1343
626
784
592
806
597
716
503
687
558
688
609
853
1387
752
525
732
661
918
761
985
628
608
427
611
501
957
593
838
752
1002
806
1033
592
537
417
592
601
1396
1087
1662
1606
1686
786
527
698
890
998
721
690
720
432
697
576
787
586
708
567
852
735
974
700
839
615
639
469
672
576
803
637
886
667
878
677
897
3345
742
434
594
510
717
550
720
545
729
468
547
444
1327
534
766
691
1124
892
1123
812
867
570
741
610
2104
656
874
678
870
679
916
657
810
546
597
433
606
699
707
523
663
502
706
527
691
547
767
551
743
592
843
717
1061
991
1223
894
934
640
841
656
761
462
1190
593
838
666
609
466
527
650
528
557
497
495
752
693
818
591
801
603
699
624
786
751
1104
850
627
2080
570
566
969
750
1005
879
1086
722
758
528
672
3475
711
581
746
577
803
612
796
567
750
582
770
591
1394
473
554
443
761
675
1002
819
1115
813
949
614
2086
478
617
448
694
598
924
826
1071
635
491
755
547
683
956
688
854
653
911
777
1107
935
1200
788
887
1045
649
461
507
464
507
432
651
560
787
592
774
605
858
637
938
769
1008
721
942
610
694
496
686
493
2106
550
729
496
661
506
495
464
935
836
1019
754
847
653
712
587
868
641
907
815
988
672
838
670
1037
3323
1159
813
875
525
593
433
511
409
543
464
607
483
817
544
711
528
666
490
591
451
623
511
741
569
1314
708
907
720
784
492
575
466
673
527
803
604
814
1177
864
665
901
704
893
600
777
617
931
712
1041
591
611
427
532
494
857
706
896
595
897
849
1129
676
1399
480
611
450
617
523
646
534
705
527
737
551
793
718
860
648
849
686
874
749
926
639
826
625
752
3351
623
448
578
496
715
576
766
577
777
595
794
595
1403
667
914
667
843
581
773
586
730
582
763
592
848
625
572
464
865
721
970
720
942
711
1008
783
897
2061
641
511
734
666
1085
878
938
546
608
447
580
485
843
508
641
496
598
459
533
432
584
435
657
549
1326
673
819
630
895
685
891
647
878
634
879
690
926
1339
1009
581
743
576
828
641
755
539
662
455
623
3219
874
631
819
606
759
577
784
574
769
510
724
594
1393
797
959
558
597
459
629
434
494
438
791
763
1017
765
971
713
781
548
693
526
690
485
669
510
680
2052
745
580
809
610
788
562
677
506
767
610
802
599
986
688
912
677
881
643
880
640
822
578
763
550
751
691
781
560
709
528
731
561
749
558
743
573
771
3171
762
641
794
629
802
735
1008
721
903
685
890
622
1089
623
720
496
699
467
624
469
720
690
1130
925
1687
957
845
463
511
464
538
624
531
482
656
541
755
817
946
756
1167
912
1051
770
827
464
807
602
670
2071
1114
832
1010
720
861
690
826
548
691
560
991
3281
913
560
669
448
561
415
691
503
694
528
645
467
1161
522
850
709
996
848
1194
990
1089
752
944
619
2144
448
718
752
613
453
759
726
975
688
976
603
860
838
962
757
992
644
701
534
666
582
789
699
1039
714
849
468
540
453
786
735
1023
658
987
682
859
578
1406
511
615
434
538
447
601
605
877
630
844
714
879
741
840
561
695
511
720
570
805
570
720
523
770
3185
864
610
797
600
816
563
725
528
783
595
859
720
1459
831
1077
758
902
523
548
432
639
628
987
701
1299
657
732
498
658
511
788
556
703
464
546
460
677
1115
797
586
737
526
672
511
750
509
786
605
912
725
1125
806
959
624
752
487
690
558
828
624
831
608
2207
673
899
669
943
757
1138
745
757
572
709
632
546
547
708
624
944
730
958
557
615
485
900
857
1279
3152
974
624
838
704
1003
738
1005
739
1081
786
947
2132
801
567
721
511
646
444
599
464
567
443
611
589
1166
690
773
451
535
656
560
620
1023
847
1200
975
1794
965
1015
556
566
458
579
496
775
694
975
731
1301
714
724
496
608
479
592
458
654
492
737
511
720
1168
894
609
839
498
704
570
895
720
970
666
829
563
1009
688
848
544
727
538
752
581
881
605
792
560
2240
537
713
511
720
534
784
623
861
608
775
592
854
907
886
592
809
599
767
573
759
582
831
643
885
688
1052
699
848
613
849
633
885
667
820
562
703
549
2183
619
731
504
735
576
905
870
1355
1104
1247
759
1123
467
555
448
638
503
551
884
649
448
694
583
800
874
885
689
921
738
1008
737
978
731
981
686
880
3008
592
451
793
681
917
678
909
655
846
606
875
655
1396
631
933
702
925
681
855
638
832
603
810
557
718
653
719
466
605
507
828
656
901
656
815
595
798
2992
977
730
942
656
804
534
695
511
678
482
659
479
1232
485
631
497
662
545
869
736
1105
944
1345
1046
2340
630
640
455
583
499
714
495
545
471
731
655
994
913
1136
858
1023
595
685
547
814
618
761
610
910
1376
935
649
816
499
624
458
604
466
640
492
720
567
855
550
752
592
898
720
976
699
871
592
774
586
1235
858
1089
764
840
475
610
511
861
630
847
626
913
887
832
528
653
534
1041
850
961
555
660
483
666
2935
859
625
847
638
976
807
1191
814
693
933
871
524
1060
800
1078
740
944
715
917
677
1061
747
897
575
1186
528
755
586
720
572
839
678
880
645
839
601
869
743
839
624
829
663
887
612
694
635
918
567
867
2934
1254
976
1253
894
1146
860
1090
752
903
607
612
2370
560
686
573
506
623
541
760
608
827
615
855
650
1184
700
915
644
819
576
781
570
813
593
816
592
1167
658
845
647
851
562
880
704
1008
742
798
501
661
895
1136
895
1204
881
1017
629
785
592
770
528
743
1276
991
702
783
496
625
464
618
488
622
472
653
530
891
647
861
652
824
591
815
613
837
624
836
638
1153
784
991
665
786
509
714
531
707
576
976
969
1353
1403
833
802
851
623
610
570
844
602
713
525
803
2903
1117
807
1018
727
947
719
939
702
949
656
880
619
807
607
916
743
959
725
976
653
784
531
656
490
1007
569
839
704
907
541
858
656
811
554
678
527
919
1403
1142
820
861
533
626
501
745
533
722
507
688
2902
704
475
656
496
738
576
790
604
865
652
923
704
1476
603
726
505
654
485
763
656
916
678
939
704
873
730
847
592
799
629
944
743
941
634
895
651
848
2746
975
640
719
499
592
496
795
629
806
615
838
617
1407
662
919
690
875
670
927
689
927
681
870
688
895
723
865
572
617
458
592
511
741
587
809
641
889
2738
913
660
877
574
848
667
1090
928
1182
764
826
525
884
650
830
485
576
511
663
650
958
745
1018
800
2417
787
915
528
576
474
640
560
850
660
872
637
929
922
836
549
738
499
683
576
843
688
912
720
1077
880
1306
739
769
511
739
573
838
610
726
511
688
583
1388
546
797
621
827
598
763
558
683
528
787
740
1019
836
902
502
647
567
903
656
758
497
697
717
1246
2305
1350
959
1184
741
895
582
664
471
531
541
544
1797
718
541
727
488
622
464
688
560
758
592
810
589
1039
563
798
605
853
656
895
685
898
675
874
615
1023
665
870
651
886
637
879
674
1040
843
1158
875
1035
766
816
586
753
618
817
670
862
529
593
495
774
2191
769
511
698
565
720
525
688
541
765
582
814
589
913
633
1063
922
1254
902
980
473
569
483
618
467
1905
645
933
715
963
720
890
569
752
663
1023
791
1031
841
891
638
944
622
793
574
740
501
631
494
720
2275
942
754
974
640
665
464
742
679
1036
848
1023
668
957
625
770
511
583
465
610
525
816
641
845
597
1955
625
821
592
835
625
867
645
863
656
858
576
730
777
810
647
845
649
897
707
1037
732
839
576
883
2617
1055
656
874
642
793
629
738
429
565
563
987
784
1232
729
726
491
639
537
640
496
646
647
871
558
866
703
1011
789
1057
754
912
691
977
658
769
551
695
737
730
592
833
656
880
645
832
634
869
621
783
478
720
511
741
578
899
762
1183
834
773
498
917
939
2213
887
635
458
511
435
623
560
815
607
858
638
834
831
754
528
714
534
798
640
831
595
809
624
895
638
917
471
622
560
1038
901
1173
861
1058
683
788
479
787
528
933
825
1134
795
901
573
710
496
743
653
975
676
878
618
846
641
795
577
678
480
608
502
749
1862
988
689
707
457
577
496
682
550
861
758
1092
789
1040
660
890
735
926
624
729
524
774
634
840
592
1950
536
710
541
784
615
880
665
885
648
902
659
777
805
932
837
1122
710
919
674
839
595
775
602
782
2511
786
682
978
714
832
528
707
554
837
591
563
507
1099
459
755
679
938
739
1040
770
1001
713
929
656
2015
759
1051
818
1060
683
720
453
535
418
560
449
725
507
606
452
688
602
811
592
751
716
1169
961
1066
1072
491
426
733
626
942
737
861
698
1050
754
990
1981
1040
688
784
481
496
426
606
608
978
876
1293
1065
1406
976
902
478
505
419
567
460
779
645
816
572
1003
706
1009
677
834
544
688
528
710
554
781
570
1973
582
789
626
881
619
780
550
783
677
982
796
1009
791
747
642
958
615
550
439
496
432
613
506
676
2431
765
572
771
577
858
681
893
624
747
499
711
636
1451
773
1048
801
965
596
753
606
763
570
816
647
908
667
886
668
798
535
704
579
850
625
788
565
749
1831
826
653
932
688
800
568
755
631
896
682
953
731
1057
563
539
415
702
901
1174
486
417
430
601
523
1956
511
750
669
957
759
944
685
964
709
886
640
784
809
749
546
730
528
727
560
750
570
783
587
805
619
1169
876
976
655
611
422
570
496
877
787
1038
673
1470
547
788
718
966
699
818
576
694
445
497
405
511
523
784
621
912
727
994
581
524
386
715
741
1045
2371
1127
768
817
594
761
560
803
617
814
606
720
511
905
717
983
690
849
625
823
585
809
646
848
610
689
639
821
621
801
597
774
630
809
546
666
437
555
1774
589
482
629
491
576
499
770
653
845
672
769
558
906
535
1008
1042
1251
848
1041
701
721
483
651
419
773
432
544
400
496
465
739
647
928
752
1009
765
922
826
1013
509
394
397
587
610
1007
784
940
763
1273
1302
1298
703
560
414
406
458
425
400
511
502
781
1301
717
463
689
614
857
653
827
655
880
637
812
566
850
567
750
583
721
597
793
607
826
639
817
643
752
579
757
615
723
624
799
640
785
491
559
464
790
1914
962
596
694
549
763
625
825
606
775
569
763
592
1038
762
1079
893
929
371
591
565
574
689
997
607
1959
771
1121
751
689
478
596
492
692
531
666
603
910
843
1008
713
750
527
706
507
647
503
656
487
624
1840
631
505
731
638
863
637
743
541
705
576
725
587
944
576
616
439
735
693
859
622
710
497
654
506
645
634
752
575
806
625
803
619
790
619
875
738
880
2043
849
565
577
471
602
511
672
553
816
783
1043
604
607
673
384
496
843
742
938
711
942
743
1017
784
807
570
443
698
492
382
704
672
877
643
608
362
557
1927
1179
945
1089
788
937
594
759
598
737
549
699
1919
769
656
919
763
941
635
633
433
448
434
574
445
1158
496
535
429
558
483
641
539
743
642
782
608
777
726
875
764
998
801
982
655
857
719
898
821
1143
2147
880
539
457
398
458
694
358
431
598
473
587
483
759
438
457
463
651
613
759
606
769
669
815
636
688
623
715
587
710
550
735
639
817
665
821
614
689
1838
805
611
765
610
742
592
730
579
703
557
656
529
1344
589
743
604
851
695
871
682
866
657
833
644
562
530
606
563
738
624
679
486
543
432
502
446
594
1883
895
715
851
738
1067
822
1063
591
332
488
387
501
946
693
836
605
609
463
751
785
1079
789
847
572
1850
448
529
464
559
528
569
450
571
506
586
487
615
741
593
496
619
484
675
576
779
684
960
767
784
582
656
426
651
714
944
651
731
655
842
720
947
758
945
831
1059
784
1022
663
622
406
401
418
466
425
475
581
426
450
633
507
562
413
375
393
475
475
553
481
811
656
895
704
850
638
752
541
587
401
418
448
688
720
931
811
1140
723
650
398
368
447
622
589
774
1328
858
702
833
606
703
576
746
606
720
613
761
625
881
625
637
485
595
546
711
595
801
656
816
637
720
556
637
576
800
742
886
592
495
381
351
426
609
1967
855
511
576
668
1059
822
827
395
304
400
571
628
1006
635
658
639
849
652
732
561
592
543
767
683
2053
877
1023
536
651
627
790
498
528
495
706
682
1006
769
657
464
509
459
470
462
547
438
481
422
538
1872
720
659
881
605
879
691
960
755
930
619
593
414
575
411
417
403
486
485
485
462
618
592
782
566
665
656
701
607
855
895
1372
1165
1403
780
563
389
447
663
528
489
536
432
325
375
587
677
976
711
928
752
1071
570
486
375
293
400
400
462
491
509
765
685
2028
496
357
403
582
603
770
634
738
641
830
714
923
890
783
619
729
530
576
488
537
442
475
475
689
634
1014
761
1005
777
832
496
540
489
738
747
1168
845
1074
402
272
542
443
511
799
646
815
685
791
674
955
749
896
677
781
547
596
500
604
487
606
579
745
1915
688
505
554
539
732
624
793
505
464
384
249
400
617
561
807
597
757
591
769
643
838
688
852
670
810
724
848
686
887
747
1076
641
529
400
272
402
709
2005
905
638
754
611
715
596
542
457
627
560
494
438
794
593
761
611
831
703
958
689
711
623
715
528
461
560
603
531
510
523
962
830
1017
701
677
402
244
2231
268
417
528
605
940
786
1011
791
930
560
511
432
547
455
464
460
687
639
865
683
816
631
843
605
688
649
885
754
897
592
282
544
287
496
845
688
880
1998
956
688
802
694
879
582
355
460
245
432
655
685
1241
793
962
682
719
562
622
479
495
471
485
453
477
557
640
583
745
613
789
643
659
492
453
496
578
1909
711
586
710
585
778
669
863
622
681
567
700
592
912
639
775
589
601
451
355
454
571
493
548
499
613
656
786
688
846
661
880
686
784
560
778
736
1082
3519
938
626
622
511
676
575
554
464
442
416
306
659
611
561
779
592
734
615
890
831
1101
654
646
394
347
560
864
661
726
596
821
681
923
788
1003
623
592
1167
477
484
833
784
1170
802
498
638
256
383
586
1327
961
702
803
573
710
689
1002
746
784
552
407
386
815
624
899
594
384
618
272
418
462
437
685
720
944
770
956
762
975
626
668
554
679
528
549
451
486
3536
522
469
574
543
691
638
894
690
960
710
754
453
835
425
527
511
672
528
651
560
825
655
893
784
1019
949
963
589
607
535
675
551
555
406
303
414
221
3631
670
592
753
598
655
525
598
487
526
495
571
440
1225
689
970
688
811
587
647
579
739
607
739
610
795
729
787
624
661
502
624
582
704
579
817
649
863
1312
774
571
672
570
736
551
597
493
525
498
496
417
715
421
467
560
800
624
715
555
708
595
799
628
734
798
752
651
974
747
811
453
198
453
495
646
1023
858
1347
959
1035
464
294
446
720
740
1124
816
892
527
473
421
496
432
570
531
301
409
478
474
647
545
687
736
906
720
875
673
826
663
976
746
845
507
474
1902
593
528
848
724
970
623
630
467
498
464
462
435
843
620
853
603
402
533
256
431
538
593
863
682
880
791
864
658
902
652
702
550
736
582
829
670
728
3457
723
629
986
795
991
687
777
545
411
399
303
400
1014
531
642
547
743
570
649
458
593
533
576
496
639
690
797
577
641
455
477
501
688
551
678
578
829
3295
1002
791
1035
707
878
618
818
489
508
492
567
527
785
594
646
619
887
571
657
566
739
577
679
502
460
496
432
499
898
867
991
457
299
405
484
432
474
1970
323
400
419
560
915
741
983
807
1008
674
527
547
267
410
742
678
915
719
947
718
958
677
816
580
807
726
762
530
570
477
695
643
779
537
540
495
667
1934
879
771
1099
829
989
624
542
442
410
419
338
400
432
495
755
662
899
679
813
543
591
464
551
495
598
594
679
598
789
553
813
688
891
602
288
394
655
2002
990
705
898
704
986
804
1239
950
973
489
339
432
690
599
770
558
563
461
591
511
567
413
209
624
257
468
524
530
711
599
771
610
782
622
754
597
753
1977
836
613
816
629
752
654
733
573
656
547
653
567
932
587
773
614
899
813
1141
699
253
601
214
399
551
656
875
683
980
775
1019
704
948
722
913
576
583
1076
867
688
974
763
1006
593
384
426
240
417
384
3403
522
506
656
528
804
658
859
537
342
409
532
458
1147
549
681
528
599
484
598
560
751
615
790
568
705
656
774
646
890
691
763
451
282
402
695
655
785
3280
1036
831
1065
735
855
570
758
576
645
545
928
881
1591
1147
1203
528
177
746
257
658
215
407
400
433
769
500
771
688
906
697
1134
820
721
442
365
448
227
546
759
640
784
570
735
599
894
729
1066
788
1058
1123
350
619
224
434
747
637
833
640
894
749
1040
3249
834
537
730
719
1152
850
890
531
274
429
705
758
1296
858
1085
797
976
623
717
561
543
427
178
653
912
463
431
457
655
621
899
679
655
464
573
542
663
715
659
561
747
576
749
603
816
609
702
543
643
525
831
579
736
554
668
544
783
647
848
624
802
608
773
624
549
467
398
423
444
485
546
481
678
576
718
1995
738
612
944
693
1019
691
619
429
486
523
717
599
961
640
836
679
893
612
723
544
697
573
798
662
879
692
657
496
580
525
562
498
618
468
459
464
640
2031
752
567
739
637
923
686
949
761
1107
759
790
546
674
449
381
417
454
574
959
752
705
425
209
490
496
683
975
782
1070
720
630
452
251
465
897
787
793
959
496
606
947
691
870
585
776
656
1056
817
1126
645
822
608
822
642
832
624
563
485
522
420
211
656
1914
432
354
452
578
505
676
539
678
614
873
659
902
843
746
528
587
496
693
665
955
691
875
560
416
418
509
491
738
602
806
619
806
597
729
550
687
546
719
689
784
624
867
640
817
595
767
623
778
601
659
1983
870
672
909
647
790
526
528
457
449
417
387
398
623
484
694
621
847
605
679
511
563
487
645
586
898
806
749
465
495
576
875
658
843
603
801
614
869
3088
976
630
671
464
403
464
574
510
602
494
693
693
1473
739
791
560
625
560
791
667
848
454
179
489
448
609
771
626
882
747
1072
763
1057
695
750
620
1040
1385
838
492
511
468
413
418
249
415
511
508
510
3194
670
509
656
579
816
665
891
593
732
556
796
610
1393
612
755
560
651
528
567
505
639
475
493
509
687
665
784
618
742
573
745
595
784
599
640
503
759
2981
1008
673
653
590
885
707
842
579
560
471
567
539
998
593
594
447
304
450
744
712
1051
783
1103
796
2310
631
775
553
528
449
336
453
655
689
1008
683
737
625
549
477
437
481
624
528
660
561
740
560
669
3062
646
563
761
645
1056
794
889
621
726
511
421
435
720
528
698
588
799
624
823
768
1163
751
821
544
1072
1177
395
576
863
704
1095
752
881
578
789
560
739
689
777
551
639
550
765
626
769
598
764
585
800
2901
982
714
912
695
1019
767
976
544
176
927
276
430
834
541
597
473
420
483
643
581
726
581
821
661
931
791
890
624
675
592
784
624
734
561
686
531
673
2960
1012
827
1175
838
1007
673
790
511
321
548
256
3088
330
453
604
562
752
582
727
589
742
590
757
607
1398
668
828
618
775
587
687
511
560
510
510
531
725
704
858
620
746
586
742
548
594
491
511
463
478
3005
786
742
1058
732
873
620
791
623
761
527
657
610
1178
749
909
595
460
537
277
495
406
492
605
535
738
640
723
609
831
656
931
759
1129
913
1226
752
548
692
299
511
951
757
805
451
270
449
493
495
597
566
852
627
774
614
830
686
913
714
889
613
735
569
528
539
529
498
617
556
730
583
758
606
768
624
830
2132
805
601
611
490
592
603
816
705
1137
812
897
615
784
541
682
541
401
466
259
454
364
451
437
433
363
616
1015
908
1216
816
944
641
822
637
766
599
774
842
770
573
637
529
561
476
305
460
672
558
687
574
957
698
912
610
628
535
638
503
542
491
471
511
678
705
928
670
816
598
654
493
467
458
511
480
550
2100
779
651
811
633
770
624
887
705
926
686
668
557
788
510
557
527
638
609
811
682
905
683
831
592
705
731
786
478
273
720
328
490
590
570
770
659
989
2897
1088
713
699
551
676
571
736
624
907
733
819
553
850
620
832
627
719
576
647
546
641
562
631
533
606
679
766
594
702
560
566
489
531
554
660
572
723
2837
857
609
797
662
677
448
453
586
951
768
975
703
1392
582
579
540
777
677
674
436
218
448
759
733
1136
1101
1167
529
176
897
299
523
804
663
754
644
820
922
902
753
1040
758
924
639
704
565
633
511
442
2896
595
577
760
618
589
525
727
752
1130
756
777
496
684
505
453
462
272
606
270
450
743
688
939
749
1034
1011
1276
863
645
500
208
463
394
511
684
667
1009
1135
1274
1006
1237
743
633
470
400
463
365
442
400
569
600
511
666
582
705
554
617
563
686
583
649
2813
857
605
740
624
816
685
830
627
813
681
880
656
1394
621
683
558
669
595
751
607
673
566
560
485
500
597
645
587
699
609
847
683
855
624
638
568
701
2763
727
601
703
576
699
605
688
543
555
497
555
506
1333
717
987
763
907
527
416
449
378
480
538
567
767
762
848
653
813
660
874
688
897
703
864
621
690
2778
595
452
393
527
760
703
911
739
863
653
865
698
1392
536
641
598
795
669
739
535
438
509
658
599
736
752
603
462
413
552
715
543
507
511
297
627
278
2747
570
497
527
541
711
611
790
663
824
662
944
827
1593
995
1377
962
865
551
359
491
282
457
542
506
556
564
667
582
719
585
701
564
582
491
681
647
763
2170
661
560
697
752
1031
790
863
573
528
483
529
613
1061
639
848
717
813
631
736
641
973
875
1059
710
1401
439
473
483
458
528
697
591
726
584
473
434
259
501
341
437
496
535
591
573
720
672
924
752
902
2672
914
641
752
611
640
511
562
497
458
482
607
561
1350
621
789
687
837
699
902
734
899
638
784
589
531
569
633
624
928
743
962
817
1198
846
981
703
362
2342
320
442
307
452
567
555
803
753
1015
656
349
573
386
489
673
631
775
656
773
631
793
681
963
754
898
511
242
577
445
608
931
750
912
688
835
683
979
2273
1104
813
912
561
496
454
277
438
372
502
613
530
916
707
884
587
419
435
478
615
929
803
960
691
766
742
895
777
1008
688
655
461
330
464
445
494
555
1138
542
464
412
495
586
544
609
562
699
643
791
656
950
686
791
610
871
707
718
624
854
673
690
567
685
572
695
557
639
532
464
483
603
576
704
639
731
2192
848
703
757
711
912
670
717
580
638
609
863
793
1248
694
407
438
673
816
1050
491
208
509
308
426
1723
457
784
634
742
651
719
580
720
645
727
525
528
747
753
657
845
747
976
686
688
483
422
496
624
545
787
624
801
688
944
795
974
705
618
414
341
605
1074
1021
1040
535
364
449
348
547
983
833
1129
871
1065
710
620
469
454
480
464
528
624
560
711
592
485
1091
386
432
473
494
500
528
563
511
611
581
703
614
950
750
830
725
843
687
830
656
752
619
832
779
1042
877
975
637
375
426
336
496
685
633
887
705
807
1211
666
491
431
437
454
511
688
576
621
551
683
625
955
705
850
656
758
615
781
642
694
566
653
579
745
785
1046
789
923
560
527
463
399
419
389
487
609
1167
678
522
577
529
584
490
624
550
749
655
763
561
754
572
719
656
880
721
880
647
656
565
658
596
752
712
1049
922
1136
747
368
511
270
448
725
734
984
1040
938
766
805
551
522
464
573
605
642
500
566
2455
631
528
574
523
562
525
622
609
767
667
750
561
1259
605
767
620
566
409
397
576
831
624
673
539
752
775
886
735
854
607
603
528
544
538
650
636
789
2367
619
576
821
593
365
405
403
592
1085
879
962
749
1085
625
691
528
607
463
511
455
498
486
571
497
656
690
813
540
511
506
777
692
803
555
473
458
549
1818
739
672
990
830
1114
886
918
720
813
528
343
470
305
405
432
559
674
579
640
583
585
546
892
880
1072
710
690
621
925
819
1023
781
811
597
714
574
503
576
362
624
355
495
702
634
791
621
778
661
850
666
1074
771
1046
916
941
554
462
459
479
473
545
538
1392
757
1042
733
624
451
528
546
724
609
717
533
549
551
543
543
784
671
918
669
773
581
610
433
385
1730
579
511
635
572
718
585
750
598
702
563
674
544
811
570
745
624
810
562
687
591
427
384
461
685
853
620
480
607
913
687
787
610
786
606
701
591
806
2354
909
762
930
746
1022
829
997
674
745
458
240
399
789
572
699
626
805
582
571
445
349
372
340
399
307
497
511
533
655
593
698
597
825
784
963
630
725
2171
480
427
461
576
928
795
976
749
859
649
884
786
1675
1116
1052
509
1005
1366
352
545
829
639
798
617
976
688
917
717
876
656
787
585
656
510
605
528
704
795
1017
759
880
624
590
454
500
448
559
496
542
1837
705
641
860
688
869
710
868
681
827
528
583
484
711
467
577
441
447
401
452
429
639
621
838
688
899
724
647
448
388
407
564
530
702
660
803
622
681
2163
606
544
708
577
747
595
752
561
641
538
640
597
1403
716
813
545
539
466
724
611
933
732
454
583
421
483
937
731
985
770
1094
899
1132
875
916
645
691
1168
628
530
651
496
494
422
466
473
573
509
581
505
776
618
970
896
1149
656
287
592
270
377
450
437
1904
616
886
662
864
655
790
576
694
583
765
602
693
819
926
780
853
497
455
398
337
394
646
619
853
727
1075
643
461
381
395
379
320
537
899
706
837
640
2007
645
944
784
921
612
530
453
604
560
717
567
662
730
681
576
703
566
527
370
329
400
587
574
769
656
962
642
867
688
873
699
971
767
800
619
799
623
704
591
595
511
599
501
598
450
564
536
622
465
448
1808
419
560
785
604
639
496
592
507
625
511
672
556
944
649
799
596
776
654
829
679
819
651
752
572
756
747
720
541
592
511
607
578
727
607
694
537
550
1783
566
498
631
563
659
673
807
721
1094
957
1136
738
636
486
817
456
208
849
350
580
958
720
850
660
842
735
845
595
478
357
271
371
454
507
672
598
814
1890
909
628
654
465
459
467
609
537
615
501
592
559
972
634
762
620
699
592
765
650
709
539
598
499
457
580
816
791
1123
886
1090
763
811
468
361
396
468
1210
677
510
667
592
719
560
656
502
528
482
607
522
785
553
675
538
655
529
609
505
668
592
774
668
810
661
769
747
975
887
1117
834
1038
603
343
365
261
565
325
457
690
642
805
610
803
683
719
487
288
390
653
651
891
716
850
489
350
387
577
582
720
531
642
626
688
534
624
585
731
641
901
760
944
679
661
1820
561
556
758
691
979
788
916
624
654
466
465
523
1107
776
785
368
240
403
497
498
670
594
679
630
978
929
1186
756
421
403
466
750
1142
855
915
555
400
581
376
400
369
395
509
439
530
508
621
539
661
582
901
656
725
704
1002
861
1042
622
457
374
397
471
1488
845
925
775
1051
813
883
578
585
429
398
373
347
487
563
529
666
511
574
553
695
597
784
591
655
1810
630
511
703
687
855
657
679
507
544
503
713
658
1193
871
937
656
781
618
769
615
767
539
437
363
307
427
336
385
427
538
829
645
944
644
683
490
509
1859
487
454
610
539
624
525
645
487
586
535
726
582
941
587
719
625
882
801
1112
782
657
402
234
385
526
671
779
528
588
641
954
708
938
887
1155
896
1104
1392
829
550
465
380
239
380
409
505
762
639
784
1534
688
496
695
614
736
531
407
386
437
489
639
576
1392
674
854
674
788
595
702
560
685
570
702
509
579
660
763
605
743
623
752
703
1007
880
996
538
349
1854
658
677
855
662
784
566
713
583
783
598
720
496
783
551
731
527
397
605
618
762
339
476
624
548
674
685
812
674
817
685
841
667
784
511
491
453
697
1374
833
645
781
653
765
658
1015
790
891
614
672
651
1089
702
723
560
623
495
395
369
298
380
506
491
528
