391.22
431.19
406.70
475.46
417.53
491.03
888.91
980.80
768.87
750.79
645.17
719.65
765.03
1934.03
474.44
491.76
546.21
615.16
636.82
779.79
1013.26
910.26
641.68
373.03
535.40
414.21
785.26
960.53
1027.05
1014.13
860.07
855.91
481.51
422.93
425.06
433.31
462.59
348.05
395.12
639.64
506.29
468.70
482.34
474.12
436.36
597.87
674.67
774.05
665.48
578.18
615.48
2418.06
657.04
639.66
569.49
608.20
559.29
591.46
547.47
631.71
572.20
627.03
602.98
682.97
1505.18
1022.26
864.93
642.08
464.47
464.88
509.61
640.80
647.72
785.53
626.59
752.64
694.82
846.94
759.02
710.43
794.96
808.72
585.27
441.77
408.05
419.21
515.28
702.79
869.79
2455.02
865.25
773.23
456.71
395.55
424.92
591.21
1014.61
838.11
410.72
476.32
638.99
825.08
1473.40
966.85
762.23
658.02
754.13
964.40
1189.74
1255.45
588.80
609.18
1176.94
686.00
1223.21
768.04
744.36
637.68
792.62
710.44
523.78
424.67
533.44
400.04
419.40
538.41
856.70
1291.73
1016.53
537.80
380.43
405.46
498.38
704.41
857.99
1085.34
932.83
712.83
782.82
1941.83
459.00
465.19
402.71
600.39
455.87
448.92
419.12
477.27
592.61
660.79
997.36
1278.77
1402.43
946.36
510.51
538.20
808.05
411.47
439.53
923.59
998.97
998.25
844.59
690.10
1973.21
839.96
898.60
1100.98
1136.41
738.50
496.73
478.16
394.36
666.45
814.47
581.67
373.18
520.41
784.03
744.87
400.72
419.04
420.40
502.05
506.08
577.94
602.55
615.00
593.69
2168.71
572.23
636.18
962.56
1436.28
1520.86
1387.15
1182.56
705.42
610.92
582.87
522.09
2017.69
757.05
772.89
644.44
550.79
412.83
499.94
620.73
759.10
511.27
481.58
466.15
516.02
716.21
579.42
452.27
490.94
533.15
637.95
753.55
771.10
877.32
752.19
622.84
516.80
463.07
630.17
579.12
744.80
718.27
626.64
471.90
539.22
605.12
553.25
567.44
804.15
731.03
2166.95
559.78
554.82
707.55
988.24
1049.28
963.37
745.59
557.01
535.95
536.25
427.79
459.71
741.96
503.38
436.06
500.64
522.66
496.42
513.38
547.39
493.39
559.79
487.45
593.08
655.27
753.72
727.91
643.76
673.24
829.61
894.86
775.87
654.69
447.64
361.40
419.48
512.66
2062.36
840.20
762.20
644.24
616.13
618.23
622.80
787.46
688.50
655.45
583.24
467.06
530.72
1294.09
773.35
630.52
640.16
501.07
536.81
646.00
683.18
547.60
488.01
402.12
514.93
708.18
948.32
940.11
1292.22
1523.67
1512.45
1037.58
436.43
1081.67
832.12
468.21
626.37
624.73
719.94
552.73
517.92
632.29
682.41
708.80
732.57
601.98
651.72
476.09
430.37
488.63
4059.15
524.57
507.91
476.30
459.72
576.85
600.33
787.09
855.10
831.69
753.81
524.96
394.07
1074.35
408.08
473.23
519.84
549.37
565.20
430.01
455.50
458.27
516.91
612.95
669.18
603.67
731.83
654.57
683.05
732.29
737.03
622.79
428.43
486.47
748.78
885.76
916.24
735.70
3827.67
684.64
635.67
595.42
567.77
554.16
552.97
563.39
499.92
513.03
462.95
564.26
628.69
1297.54
612.80
555.07
411.79
320.59
620.02
808.68
906.91
783.02
750.65
595.18
531.18
523.73
828.92
622.18
823.72
627.93
542.08
475.88
700.88
687.12
696.00
545.94
497.89
470.57
3938.00
541.66
625.33
569.61
667.31
653.92
713.11
694.41
577.18
513.28
636.42
613.65
621.08
1363.63
636.96
575.42
591.28
721.03
751.91
682.69
744.98
742.62
921.87
927.89
1047.42
993.54
933.22
596.24
386.38
388.02
437.35
435.92
440.29
513.59
460.61
532.90
835.02
888.36
3893.37
479.95
406.56
564.95
780.18
617.93
411.07
597.31
727.38
959.73
1277.84
1428.06
1405.77
1088.17
590.21
431.17
424.72
545.60
696.56
789.27
568.16
390.63
474.30
474.05
401.17
1153.20
626.62
691.26
720.22
729.08
606.62
469.80
501.81
520.43
629.14
882.11
1058.16
1133.64
1128.91
715.03
426.30
368.09
407.81
402.42
409.87
437.54
552.35
646.77
627.56
640.24
2081.59
624.15
653.06
729.56
754.86
665.11
652.08
530.79
530.87
554.48
557.49
518.80
622.31
686.25
518.39
417.27
425.12
470.95
471.36
528.67
694.49
732.37
666.23
568.99
612.90
616.06
651.33
603.87
657.92
433.22
486.21
514.71
825.21
742.39
594.65
500.75
526.59
524.11
3990.64
615.35
556.33
600.52
589.03
526.61
555.96
463.04
466.12
567.62
603.63
671.20
626.36
1333.11
703.77
503.37
595.33
679.47
625.41
546.68
699.34
847.05
726.72
592.90
502.94
547.68
648.97
454.33
435.14
486.55
468.07
602.80
781.36
719.62
677.00
625.50
606.05
492.46
3857.02
614.53
772.76
915.16
959.31
833.98
866.38
889.39
844.81
807.87
650.16
487.81
604.70
1274.31
622.61
743.26
863.40
661.20
461.78
521.41
459.19
431.62
425.38
475.91
505.05
496.69
723.95
650.55
622.64
606.40
589.34
506.15
475.49
502.70
537.65
583.07
605.39
532.33
4043.47
539.39
540.67
596.57
824.22
770.22
744.72
716.93
638.05
635.02
594.36
658.81
947.92
1627.61
1357.68
1192.99
1087.59
715.14
479.05
614.27
752.80
725.48
506.15
409.24
529.57
1404.76
888.32
549.19
506.73
756.24
380.15
706.49
975.77
1010.63
949.56
711.33
736.47
1388.99
638.20
596.70
579.01
511.70
670.21
673.84
635.10
597.50
658.74
596.99
585.12
636.08
1275.60
577.96
587.20
592.43
518.14
487.19
504.87
527.07
502.89
464.75
572.61
555.44
691.13
675.96
674.38
651.13
615.20
658.60
678.66
568.90
526.66
416.99
594.31
702.84
804.22
1610.34
988.63
981.26
1072.43
990.81
677.65
440.43
414.99
477.04
596.34
620.20
841.47
584.91
807.80
604.40
636.60
702.70
714.76
769.66
649.10
487.82
555.38
383.13
352.57
353.99
471.48
599.34
624.85
380.77
581.97
603.36
689.81
688.69
845.81
802.01
593.92
391.22
424.95
1387.66
855.97
860.65
626.13
451.16
546.35
555.83
549.39
610.66
681.36
551.31
491.99
463.21
1158.45
417.71
360.73
420.33
686.53
874.69
823.04
607.20
437.69
475.87
428.22
685.00
825.11
907.46
752.03
687.61
649.20
668.64
725.38
772.82
722.99
671.33
689.93
638.60
832.27
1415.91
523.74
425.30
712.94
396.82
532.17
657.69
604.78
597.54
525.97
549.05
719.87
823.53
1522.40
696.38
561.06
608.85
719.81
708.25
612.89
597.63
595.59
629.65
825.81
839.56
745.58
680.33
525.18
443.70
536.48
578.74
651.44
638.19
646.65
770.16
862.60
797.50
728.61
1361.91
713.02
558.35
526.47
465.03
520.73
559.08
490.14
427.37
400.56
403.58
403.51
406.32
1209.57
597.90
642.51
649.04
689.00
758.55
717.33
688.16
487.58
461.35
550.13
521.41
667.22
725.30
769.91
742.53
683.14
664.66
704.16
640.07
561.31
535.30
593.41
509.03
533.57
1367.60
693.94
606.81
594.67
650.66
573.99
640.40
634.50
603.17
663.80
549.94
600.61
600.84
1394.88
730.88
802.29
578.53
562.10
499.21
505.64
554.39
659.75
517.23
454.74
594.16
804.09
905.80
738.01
561.09
405.73
502.51
567.40
551.00
599.37
646.77
669.38
676.91
727.77
1387.52
556.43
472.18
602.76
691.91
753.21
667.54
710.88
621.06
692.27
705.95
610.40
588.67
1457.17
744.88
723.43
478.10
508.96
573.87
688.60
801.95
910.27
823.71
775.65
678.71
542.18
524.74
442.69
473.42
437.17
494.10
556.13
705.50
931.49
831.60
521.28
744.77
1006.35
1399.93
860.91
953.75
1034.12
980.52
949.75
635.26
569.90
569.19
627.75
579.58
633.25
551.99
1324.86
596.58
541.82
500.34
362.44
497.13
487.03
476.86
449.33
569.70
748.71
650.52
671.97
874.45
838.15
842.04
992.50
747.24
504.31
362.05
582.11
670.33
684.48
677.22
552.73
1325.21
478.04
448.95
494.17
560.10
547.11
460.64
547.39
428.84
518.78
663.35
636.66
530.13
1387.11
678.49
778.81
843.33
757.32
485.29
510.52
438.65
716.67
696.93
659.49
625.82
610.70
777.41
509.79
571.19
811.31
946.89
1069.85
1039.79
683.42
440.65
434.02
465.82
593.78
1392.18
589.72
718.41
817.47
732.97
740.09
682.02
585.80
576.70
568.67
529.78
545.13
527.56
539.83
415.87
502.92
534.38
484.08
595.22
650.67
754.87
830.92
714.11
551.19
526.00
3645.81
695.48
611.31
630.16
542.18
583.28
537.82
515.08
588.85
567.99
711.18
691.33
664.64
1460.80
810.87
678.55
526.78
454.85
510.06
512.67
517.53
512.32
533.00
586.46
646.08
592.02
767.99
582.24
597.48
625.85
642.47
634.06
612.77
622.51
564.68
546.61
615.03
632.60
3530.64
740.62
777.34
773.18
823.65
772.29
678.49
558.31
563.76
672.21
852.41
734.02
602.03
1268.64
376.50
454.72
382.60
409.10
393.59
477.07
732.32
659.73
734.87
697.75
697.18
640.93
703.21
688.04
641.02
577.64
641.09
652.17
659.08
594.36
606.94
581.60
680.61
585.89
3678.68
648.21
575.92
541.66
582.58
552.04
592.02
578.39
571.86
652.05
719.74
688.24
599.83
1410.96
525.92
470.75
364.43
567.59
569.75
691.73
688.12
709.00
667.72
641.99
723.54
618.46
760.02
750.03
804.89
872.26
951.78
953.88
720.50
584.13
527.08
487.94
506.38
457.86
3809.52
534.75
519.76
519.23
579.94
568.04
567.34
469.44
495.86
585.55
619.75
568.40
587.23
1291.86
513.93
556.24
610.06
526.74
635.45
607.20
669.84
663.14
655.71
551.86
570.98
646.86
733.33
677.12
685.01
722.34
591.64
550.78
508.94
434.07
636.00
526.91
454.44
417.41
3653.92
662.94
687.06
713.06
769.23
720.78
774.59
842.81
954.23
888.12
899.67
968.38
1124.59
1565.90
679.55
363.14
429.36
387.41
405.67
449.03
513.14
499.62
433.33
433.58
496.16
3787.51
595.30
619.78
621.18
826.67
871.62
773.98
715.09
572.24
669.72
728.05
777.36
619.53
1379.52
461.93
461.49
534.28
572.31
455.21
492.74
460.91
409.70
404.21
530.17
419.95
463.31
547.52
517.75
472.23
545.13
436.65
482.75
383.01
539.01
520.50
674.86
724.39
766.49
3533.44
695.02
481.29
506.50
517.92
568.47
488.77
483.00
528.39
689.84
570.96
693.48
709.45
1441.25
848.26
859.03
693.10
677.89
570.93
543.00
514.10
530.85
527.17
529.02
528.51
504.16
756.41
703.68
610.48
672.78
610.62
517.67
568.59
635.41
629.86
680.66
690.40
701.81
3582.51
709.90
646.08
561.35
569.63
550.85
502.85
575.20
642.87
693.13
635.99
615.37
576.54
1410.62
630.86
536.92
449.43
446.56
512.60
640.72
874.89
960.79
858.19
811.87
677.62
682.45
604.13
409.93
482.16
590.38
487.00
509.59
495.15
533.29
565.80
515.43
523.31
581.80
3622.53
795.00
773.33
865.49
902.84
788.33
603.63
450.15
623.80
429.35
617.63
722.06
734.63
1478.94
700.69
791.51
821.69
988.49
908.11
773.99
601.42
590.76
520.58
548.39
453.63
382.18
479.34
457.25
385.37
459.73
482.01
476.98
425.56
500.64
512.05
605.24
624.48
695.63
3623.35
831.97
802.24
821.20
844.95
973.75
1059.25
1053.55
839.81
655.55
542.94
811.59
578.83
624.15
538.65
506.98
413.60
387.09
471.29
538.97
528.75
609.79
518.20
516.80
524.74
562.22
795.44
663.62
551.40
479.54
625.89
759.38
794.40
851.28
677.18
651.36
768.80
783.75
3353.69
703.13
500.84
542.14
475.95
536.22
680.11
702.43
646.06
614.67
536.41
513.47
437.85
1263.51
535.96
525.76
616.57
530.55
542.36
630.84
642.29
723.97
785.07
737.50
593.39
634.04
684.84
539.25
601.93
766.75
859.28
924.14
664.51
528.28
495.28
497.14
504.33
548.07
3512.04
619.64
640.28
640.95
705.59
654.09
633.04
679.00
603.27
584.49
530.46
509.53
569.68
1428.38
529.26
569.43
657.98
737.74
666.77
625.48
496.39
460.82
495.80
708.19
671.38
659.47
659.20
571.03
537.27
545.25
617.98
603.28
435.12
500.23
617.27
629.65
540.43
672.46
3396.29
823.91
714.79
647.56
662.18
678.26
665.17
615.44
521.49
523.49
493.96
507.46
480.66
1364.45
661.95
654.56
598.98
670.91
760.80
832.50
742.13
607.38
427.73
459.22
486.36
685.83
845.39
879.13
854.36
795.16
840.23
612.63
527.16
637.64
687.19
738.91
595.46
504.67
3739.76
567.33
607.20
698.03
797.38
873.58
926.86
863.03
650.11
477.33
444.61
469.03
639.78
1464.64
733.59
660.21
579.46
538.64
505.86
660.86
606.01
682.42
570.67
470.82
450.87
504.19
721.89
578.34
501.74
628.12
565.25
601.94
517.53
528.02
524.28
572.44
579.77
566.42
3531.84
630.89
626.24
569.60
662.70
781.58
794.19
680.33
647.98
604.04
668.08
724.32
667.94
1454.92
573.46
500.48
553.45
896.40
951.99
712.40
561.80
589.60
507.00
645.34
553.81
454.69
544.83
519.26
512.07
410.32
502.81
501.36
436.10
443.67
361.09
489.04
451.64
438.03
3461.96
635.46
601.59
677.66
681.38
747.20
880.13
989.53
1160.93
1261.98
1134.31
979.19
510.23
456.29
830.86
1202.31
907.31
557.48
478.24
639.20
801.72
843.65
575.42
539.39
567.36
1365.30
703.19
650.35
398.81
653.41
458.26
600.17
621.24
614.40
656.52
767.72
667.51
712.86
773.69
643.72
627.74
681.46
630.15
619.58
578.38
573.22
564.61
478.33
469.70
616.61
3410.80
596.82
577.10
686.76
610.63
546.89
739.05
666.78
566.80
490.25
442.00
576.68
576.59
1488.66
658.58
569.55
477.54
600.95
580.11
658.69
695.11
731.11
649.69
612.66
649.70
742.70
824.77
778.26
668.48
781.67
850.63
829.44
596.69
666.01
627.06
592.44
475.76
487.11
3217.86
577.21
576.75
687.08
606.27
723.23
610.42
565.21
372.10
428.31
503.70
500.10
478.41
1444.96
700.76
758.27
731.32
827.91
824.99
764.44
689.55
604.67
561.97
557.30
533.76
534.92
702.11
639.70
525.66
512.59
425.23
548.40
521.23
576.78
544.84
555.32
555.89
506.20
3389.77
517.38
575.37
659.27
570.77
605.56
615.44
634.87
666.76
682.88
685.57
736.93
708.61
1453.65
733.02
785.03
681.28
680.83
713.74
684.83
527.93
599.13
518.90
551.42
565.34
600.58
745.79
607.24
597.56
616.19
611.30
593.59
489.96
540.85
453.78
493.89
482.51
534.14
3254.98
578.58
589.46
610.56
620.67
534.72
534.37
617.90
695.98
745.19
623.41
482.68
445.41
1350.80
495.48
578.01
614.90
658.07
717.10
806.85
650.09
647.10
465.64
553.90
722.45
800.23
874.32
686.61
628.55
703.80
542.31
545.26
562.14
589.79
665.99
717.70
757.21
548.60
3262.21
692.28
827.79
996.68
839.42
782.37
562.47
427.94
574.13
667.63
572.80
442.32
424.04
1460.96
761.00
912.30
835.37
689.05
541.06
455.06
502.97
569.19
440.09
505.69
600.57
689.93
779.83
647.21
491.38
450.46
477.52
458.50
519.42
529.30
512.15
553.85
587.36
605.08
3284.81
720.27
571.58
684.70
616.18
648.49
741.95
830.71
829.05
647.87
401.57
440.39
458.19
1429.06
736.97
773.23
698.19
633.77
604.06
599.42
500.61
568.36
499.70
521.42
530.50
598.84
787.42
761.26
661.26
678.67
617.50
706.03
653.05
659.89
636.26
654.07
747.36
793.71
3160.52
789.32
658.07
478.60
502.36
493.93
438.60
636.02
538.15
470.25
486.58
479.79
522.60
1456.51
621.67
675.33
583.57
678.78
678.21
655.31
731.80
577.30
591.59
661.89
645.49
794.96
895.95
849.72
707.00
620.00
570.29
601.46
512.77
569.55
530.41
563.53
603.01
647.56
3175.46
587.37
611.28
630.84
574.96
766.83
867.43
944.52
1107.91
1218.21
906.46
670.49
548.34
627.25
452.42
892.70
1012.84
522.61
530.12
613.75
794.67
803.89
552.96
522.96
401.82
3234.66
570.69
650.46
694.46
748.70
676.23
671.71
629.43
732.86
657.58
605.33
437.56
493.69
1028.85
624.20
678.64
753.39
728.82
604.94
557.09
597.47
645.29
643.11
511.77
601.22
574.76
705.26
594.32
506.96
570.11
749.37
936.69
988.13
900.55
704.24
523.37
447.54
574.89
3380.37
496.48
634.29
684.97
743.81
700.70
775.55
630.59
625.25
537.91
581.86
394.75
635.78
1143.61
592.21
553.64
644.66
642.98
725.82
697.67
660.25
575.19
556.76
585.77
658.97
556.12
601.32
609.62
594.42
581.08
511.14
492.76
489.03
491.12
668.62
663.07
661.17
620.89
3269.78
701.32
705.71
689.60
711.07
623.55
669.44
716.24
770.36
778.39
801.40
785.44
783.93
1248.63
552.63
472.37
451.09
509.04
555.94
568.18
544.25
391.18
472.18
487.24
497.02
591.88
810.01
607.46
633.21
788.40
803.77
682.54
636.21
540.43
512.49
642.55
568.15
658.23
3124.49
818.70
627.81
525.21
689.61
847.90
847.24
830.11
843.74
941.16
868.81
844.15
688.66
1077.60
1016.02
1175.29
660.47
444.36
523.38
581.90
625.96
560.22
575.17
493.69
586.10
599.56
882.74
765.14
713.87
595.25
546.82
500.16
510.79
579.33
479.09
470.45
611.57
595.61
3080.78
722.10
664.32
628.17
615.05
564.20
567.74
470.86
583.57
652.75
646.88
646.07
700.15
1226.17
706.85
706.24
835.88
840.35
811.44
585.50
442.96
498.77
546.92
654.85
713.91
683.25
774.56
708.80
778.43
774.66
871.08
740.52
565.35
468.86
432.86
487.85
519.35
546.05
2966.62
556.73
641.21
604.61
578.21
507.88
560.00
483.69
691.50
707.41
874.69
840.72
844.13
1373.31
734.88
561.00
460.46
490.62
463.98
457.61
456.52
464.68
617.40
674.88
608.61
584.22
665.43
572.99
587.14
530.18
573.28
602.13
629.52
639.20
647.45
653.23
662.11
625.68
3089.09
819.21
915.21
840.10
789.52
701.58
625.38
609.46
899.49
1258.94
1504.41
1115.88
800.09
653.90
603.13
1254.20
1328.42
988.74
511.60
477.16
666.38
692.18
605.88
530.50
495.08
692.06
760.98
949.87
1088.63
927.80
718.34
600.12
551.79
567.69
592.87
585.90
624.35
3025.01
673.85
564.67
710.43
701.95
912.24
946.61
787.72
477.79
476.47
434.00
566.06
518.24
1519.50
563.11
584.46
550.75
605.30
454.47
580.14
664.18
615.51
629.95
666.98
699.69
800.73
960.60
1087.08
1011.83
783.31
712.53
578.97
422.07
487.02
566.57
633.32
652.23
726.58
2204.73
585.88
902.69
603.55
453.86
596.76
607.20
569.02
576.37
510.56
543.64
667.45
794.18
987.33
782.89
878.31
768.15
534.61
460.32
670.56
692.48
779.96
637.51
658.37
494.52
558.54
577.97
435.80
494.78
591.72
609.34
776.31
854.75
670.84
580.41
469.64
443.92
618.70
3019.87
821.03
617.40
647.26
488.71
570.80
563.52
628.34
610.94
560.48
449.65
572.51
532.05
1468.63
662.34
752.19
903.37
974.86
765.62
805.39
774.03
775.36
731.76
645.44
502.73
566.03
637.21
554.31
607.25
570.08
542.76
549.70
452.36
499.51
545.46
538.86
539.09
608.48
2954.27
618.56
537.85
618.09
650.57
821.87
950.96
975.06
659.32
498.12
467.39
508.20
507.59
1420.45
740.28
758.80
772.74
726.45
644.34
619.12
506.15
555.71
662.32
809.41
860.93
995.78
882.23
614.91
504.95
512.65
589.41
613.85
581.15
568.53
535.29
562.23
505.44
576.00
2873.67
718.19
819.76
989.99
936.43
807.09
614.01
595.09
476.01
518.48
476.65
539.76
500.55
1424.39
675.38
835.03
879.84
848.63
716.57
548.61
439.32
523.37
468.27
492.36
543.66
497.38
571.49
579.99
619.98
609.12
617.45
613.41
542.23
576.98
488.50
632.97
595.02
596.96
2857.27
725.48
608.21
669.01
593.44
591.57
620.49
729.54
704.66
698.03
701.42
752.59
726.68
1523.00
682.19
729.09
853.67
911.58
725.28
589.00
483.83
476.15
502.98
581.90
689.60
698.23
770.64
588.53
422.14
437.66
511.37
676.82
619.90
663.06
655.26
705.06
678.83
676.39
2864.76
695.68
650.83
679.85
766.01
836.94
702.66
646.85
560.15
468.25
538.34
776.25
904.85
1669.71
1393.30
1502.05
1435.68
990.88
506.38
1016.77
1029.92
1029.75
1080.24
759.82
406.28
607.05
523.91
491.45
521.11
521.34
583.51
614.24
677.52
683.05
640.58
611.52
550.07
2933.63
781.50
797.54
881.92
851.94
696.60
684.24
546.22
562.04
630.25
736.72
713.36
734.29
1397.80
764.28
780.04
790.16
790.03
776.68
626.63
586.44
616.02
805.16
808.90
657.63
493.65
481.05
498.00
492.30
445.24
575.60
537.03
481.35
522.57
599.77
627.19
749.32
732.42
2949.09
731.59
814.41
606.87
629.74
570.13
676.18
656.83
511.28
516.33
549.14
519.59
629.55
1247.19
659.12
721.94
697.56
677.79
702.79
542.38
614.81
524.20
512.63
527.95
584.51
648.81
830.97
628.53
631.87
596.33
622.74
788.12
763.43
661.06
713.46
800.23
911.59
942.09
2926.35
756.06
517.96
799.78
973.69
645.52
494.83
593.78
714.76
600.11
576.61
730.74
819.16
1477.55
841.10
779.69
649.42
670.81
604.71
608.41
581.87
610.99
639.17
644.32
685.48
614.14
819.76
687.46
675.66
658.55
637.68
701.60
669.47
576.19
595.63
638.47
791.24
660.67
2703.73
716.88
540.99
459.63
549.97
466.46
536.66
536.86
625.82
660.63
756.72
742.29
743.42
1246.24
606.05
493.22
555.91
550.15
543.52
504.21
506.65
611.72
726.00
861.29
847.44
1088.82
1512.31
1219.90
829.72
533.07
477.98
464.45
493.93
478.19
465.52
457.36
561.36
584.73
1493.11
915.44
774.53
665.34
660.26
515.17
409.98
456.70
572.91
661.16
643.18
594.39
716.58
813.81
768.23
787.92
735.22
560.71
482.74
522.02
515.58
482.43
442.35
479.51
531.09
2664.69
757.03
835.75
994.95
799.42
710.54
596.52
679.11
680.01
668.09
507.01
449.36
533.46
1498.26
741.40
828.39
741.63
688.32
776.15
871.26
845.64
718.87
542.83
637.93
582.31
667.27
898.59
769.81
687.11
670.45
565.73
605.18
603.09
588.92
554.91
636.64
625.28
738.88
2782.54
851.92
670.26
606.72
481.66
543.85
477.11
470.79
572.35
793.69
510.04
666.99
739.77
1432.28
581.31
554.72
531.66
614.92
608.08
738.44
673.24
642.69
540.05
448.75
506.08
575.27
789.59
711.62
715.39
762.84
794.49
829.48
748.14
679.27
615.02
647.63
829.25
970.44
2619.84
756.35
447.05
532.12
464.61
528.08
507.11
442.89
490.91
554.11
684.75
830.81
801.33
1530.00
796.77
827.20
740.83
762.04
705.57
776.04
694.37
759.26
681.13
582.82
637.92
507.22
629.62
609.83
565.32
638.27
694.42
703.63
675.94
767.04
764.00
727.77
704.29
725.67
2662.47
785.15
934.13
978.50
839.66
685.00
725.95
605.15
470.90
499.53
609.83
504.85
508.23
1486.32
636.68
640.00
506.71
614.97
645.31
649.81
684.73
721.96
917.82
815.20
655.59
628.18
518.36
458.66
611.23
703.70
658.88
720.88
712.70
588.79
644.81
614.43
683.50
770.44
2620.74
777.29
559.43
470.22
453.11
425.84
491.87
553.75
667.36
772.86
813.71
712.34
570.21
1472.15
582.18
771.33
957.84
1075.50
1013.99
824.20
439.77
410.87
474.26
724.18
806.06
2702.17
703.54
533.30
451.51
451.88
606.89
532.28
524.70
490.83
473.31
557.07
498.73
487.70
1189.65
631.30
680.89
672.89
671.73
618.18
633.50
756.05
925.67
917.61
850.01
539.24
717.29
605.41
477.08
460.41
578.81
718.76
748.09
748.53
767.92
768.07
675.30
699.36
693.91
2648.62
532.88
450.43
554.47
617.82
692.33
782.87
784.12
741.35
704.19
564.91
530.55
504.40
1203.69
623.00
692.80
695.68
634.74
661.20
704.46
704.63
588.83
645.92
652.38
785.32
860.20
973.23
847.83
880.70
718.24
479.95
422.44
469.55
450.86
577.91
646.62
701.75
662.21
2613.62
728.48
685.21
515.54
527.51
452.00
525.68
488.28
522.31
587.58
633.19
636.48
587.07
1012.97
451.94
574.30
687.09
627.63
886.53
946.55
962.42
793.71
754.98
629.41
466.32
492.57
600.35
511.30
683.83
437.40
577.65
477.72
473.57
482.55
476.37
491.52
562.11
442.44
2673.89
809.48
837.40
791.57
858.34
761.45
899.07
833.75
951.08
737.65
586.99
433.11
542.84
1339.88
817.62
703.95
708.11
600.48
619.48
639.32
697.11
600.97
626.58
651.57
785.33
712.20
758.83
407.49
628.94
513.98
622.90
641.59
698.03
652.61
743.06
691.20
535.87
500.96
2495.87
580.83
552.27
593.96
521.95
639.59
649.75
846.15
988.48
1006.58
938.44
623.92
543.75
1104.88
558.15
733.59
786.73
853.77
760.09
503.36
457.62
501.27
424.07
454.72
466.30
463.93
498.20
341.21
584.69
678.34
837.26
724.09
625.09
730.46
793.20
860.02
830.84
758.40
2568.24
777.00
730.87
600.65
690.75
667.95
688.73
617.94
699.00
560.29
574.25
556.77
605.15
1254.87
685.05
601.75
560.72
617.92
594.43
503.06
572.24
584.87
722.68
616.85
574.43
604.02
708.14
733.94
687.97
657.36
739.85
646.37
698.39
702.11
723.03
590.42
616.44
699.13
2561.29
761.97
838.38
907.29
894.84
588.32
538.44
519.73
596.51
503.99
623.79
505.97
600.95
1225.60
549.32
477.59
445.23
424.46
428.77
416.61
503.49
587.12
626.77
498.32
485.14
467.71
549.82
603.11
525.47
464.48
469.97
392.63
533.11
578.49
569.51
639.94
693.11
842.69
2693.69
894.87
757.66
580.61
610.63
652.12
590.50
504.48
534.55
618.55
753.46
947.18
991.99
1422.91
666.17
434.02
524.19
460.94
655.28
756.35
754.28
595.71
657.51
871.17
769.03
450.71
533.32
452.72
503.72
445.43
559.93
453.33
592.73
489.22
561.59
480.94
470.58
408.32
2430.93
689.54
777.34
718.13
707.91
616.15
693.90
762.07
823.84
733.00
804.66
556.92
599.52
1275.90
716.41
732.40
739.32
684.13
656.28
668.02
596.29
545.90
587.24
775.87
877.77
655.01
619.27
454.04
524.75
722.00
757.28
530.31
541.16
445.50
573.39
426.51
503.81
547.73
2551.43
782.56
866.15
834.62
834.69
896.56
944.58
918.31
785.63
529.08
449.48
584.40
668.59
1316.47
682.12
577.00
497.54
532.81
503.38
424.97
515.79
405.71
383.03
415.96
534.91
609.75
732.72
596.36
668.13
656.87
715.25
630.80
526.05
471.20
492.41
510.26
602.64
573.62
2434.00
697.88
737.48
592.76
505.45
440.95
556.77
613.85
643.85
652.80
696.56
583.12
593.90
1115.63
670.71
550.65
684.66
660.49
685.06
591.29
654.53
660.06
582.34
463.90
444.13
526.44
627.77
643.98
736.82
784.15
847.72
796.93
867.46
971.36
962.58
634.98
496.72
416.08
2347.97
492.61
396.92
481.26
603.56
658.45
834.69
752.84
548.66
356.91
492.08
452.58
532.12
1252.68
686.52
665.60
660.44
627.28
712.14
616.84
736.86
693.92
701.82
692.35
802.21
758.94
1064.65
822.81
625.38
479.64
523.37
402.56
508.26
334.55
511.60
567.60
714.25
719.10
1976.08
729.95
628.61
641.49
675.53
633.20
589.28
543.42
592.88
592.56
649.57
616.62
675.25
836.35
858.32
1028.58
1142.21
777.94
556.44
345.90
385.49
421.33
531.61
516.84
579.17
2016.71
791.32
720.55
1015.93
1024.52
811.88
638.92
730.16
731.79
621.54
332.25
433.14
403.18
695.31
442.72
492.82
423.46
431.50
545.51
467.14
563.94
531.94
495.71
440.20
537.21
504.33
628.73
602.39
483.66
456.28
543.69
624.54
741.89
740.59
663.29
687.07
667.06
620.54
2164.99
679.47
695.62
621.75
657.98
721.43
649.22
575.57
552.53
596.23
534.62
547.70
518.04
1486.90
759.84
730.71
681.37
669.37
478.50
551.47
586.62
615.80
709.71
693.02
851.49
848.26
844.33
753.19
671.77
645.12
517.83
615.70
712.72
762.95
650.70
719.38
656.33
770.63
2222.13
647.53
410.23
514.81
462.47
525.44
661.88
713.79
601.09
483.18
595.75
693.25
775.73
1451.13
496.32
433.07
458.58
484.39
477.21
627.46
651.60
646.92
625.35
688.25
793.33
869.12
848.58
732.74
493.73
424.95
503.88
630.14
784.32
773.20
665.36
545.20
421.81
379.36
1853.64
427.83
476.75
531.68
534.97
662.34
687.41
625.41
613.12
438.36
473.42
620.29
783.63
1470.32
688.20
595.23
587.09
618.34
601.32
513.98
609.43
720.26
793.82
1165.77
1338.55
2753.46
1541.95
834.62
457.52
1333.90
1428.41
829.00
388.94
426.61
597.38
958.20
1011.54
2147.39
675.40
683.97
560.63
613.69
504.99
561.30
547.73
616.63
520.17
467.17
478.11
455.61
772.81
651.98
628.48
644.90
586.50
549.91
673.50
781.07
692.82
701.59
747.07
663.31
485.97
556.52
605.85
714.63
660.44
553.77
357.03
654.63
664.84
597.65
523.52
483.23
573.55
2064.89
648.82
716.24
658.88
607.99
579.67
588.15
555.17
583.94
603.89
753.33
801.82
787.19
1437.96
714.70
543.58
411.49
545.18
578.05
510.84
483.29
558.24
658.33
712.19
913.32
1020.64
979.52
614.22
417.74
409.22
419.26
570.76
735.20
770.76
768.34
660.03
586.41
502.16
2115.54
594.37
498.02
505.49
502.54
507.41
550.11
486.30
487.29
469.04
441.26
561.04
610.55
1518.04
793.94
842.78
827.32
627.92
550.54
485.28
448.77
519.52
405.01
490.02
690.00
605.57
768.75
684.38
759.07
504.52
497.69
600.61
733.24
616.09
628.01
717.99
734.01
763.68
2074.27
958.08
817.91
750.11
892.03
753.49
723.63
635.48
491.22
530.85
788.59
764.51
822.02
1445.13
736.87
655.08
667.64
395.04
455.69
441.12
488.11
516.02
514.72
467.57
401.35
695.36
656.78
518.79
412.25
540.95
619.21
497.75
521.20
412.29
451.70
391.72
526.15
602.83
2143.06
781.08
825.26
851.97
987.55
1094.84
1036.14
899.10
662.14
503.20
437.21
481.07
556.68
1307.16
673.64
629.52
531.26
493.84
522.43
668.36
636.29
594.76
743.00
721.93
682.35
594.44
722.84
762.67
739.22
707.23
652.23
617.94
659.37
483.66
553.31
696.22
852.07
783.70
1991.25
475.39
459.97
370.70
527.18
559.13
556.59
559.54
648.94
438.79
710.30
1073.71
892.75
1428.85
737.09
467.84
399.14
514.21
583.89
417.47
458.18
525.25
660.85
626.17
662.15
637.47
857.19
703.92
746.83
665.62
704.45
662.07
703.53
740.38
810.26
685.21
504.49
569.95
1915.51
718.16
683.63
528.87
532.80
535.74
586.42
695.14
846.78
666.43
650.10
521.56
621.40
1366.52
754.44
869.36
833.21
584.36
531.96
427.69
475.01
413.82
517.39
469.32
504.30
483.31
637.65
694.48
726.99
676.04
756.68
706.24
759.77
680.33
694.36
696.17
514.83
513.49
3813.85
668.58
673.42
600.86
639.66
661.90
713.06
529.25
438.31
422.41
394.81
436.21
562.38
1319.04
645.46
599.12
648.54
690.41
907.67
849.78
772.00
516.52
387.12
438.71
366.50
567.83
782.29
778.91
753.33
649.22
688.44
763.62
889.84
702.00
797.91
784.84
714.31
476.28
4151.26
447.65
404.55
603.68
668.85
674.76
851.08
858.80
870.63
1009.71
1096.20
645.08
610.76
894.14
484.43
630.10
644.99
575.15
718.52
652.73
694.68
713.85
620.26
565.54
536.90
455.00
576.37
441.28
419.15
484.31
580.77
641.24
692.27
664.77
654.83
460.40
583.64
529.29
4069.33
646.15
821.02
825.16
866.92
909.77
755.35
466.67
392.86
328.02
436.59
381.69
484.51
1293.43
733.21
593.54
445.98
348.88
353.01
471.01
618.15
699.23
664.87
635.97
668.76
607.32
706.71
595.43
653.57
655.46
648.67
610.93
607.59
562.60
649.01
591.58
668.60
590.92
3910.21
673.02
740.38
689.94
572.46
558.14
597.93
528.99
670.10
650.07
680.47
541.07
576.14
1318.78
734.07
741.84
597.27
472.97
529.68
535.07
608.72
527.06
559.43
429.53
472.82
531.41
886.30
792.37
790.03
812.20
594.64
462.57
565.44
723.30
783.22
724.09
597.72
417.60
3857.40
542.57
509.18
608.48
598.50
605.06
595.84
628.21
636.31
604.30
657.82
706.32
735.25
1443.25
778.31
576.64
590.69
460.18
604.66
568.90
546.23
509.02
799.29
954.79
947.24
697.23
563.76
753.26
741.59
376.27
515.50
489.88
545.61
629.78
811.04
866.07
989.76
1002.63
3925.78
458.30
425.79
378.12
561.80
646.79
674.98
580.71
657.21
586.42
598.16
536.29
553.65
699.18
493.60
523.59
628.37
766.23
820.37
770.15
770.61
670.47
553.26
461.37
396.28
445.93
584.73
580.24
588.88
630.41
631.96
572.85
671.85
641.23
592.70
510.24
551.37
523.17
3834.83
673.90
609.14
690.12
673.09
700.48
725.98
672.79
681.91
703.66
740.80
632.07
617.83
1373.49
708.72
620.41
648.78
671.88
782.45
831.84
829.67
804.33
790.38
826.25
909.95
615.57
497.65
809.61
839.66
437.72
521.26
488.47
545.84
652.24
705.40
660.00
539.61
499.56
3855.40
668.94
611.60
488.32
433.50
406.38
523.27
421.63
467.39
422.00
532.77
531.06
505.76
1438.78
678.85
625.31
653.51
710.76
731.56
816.02
868.37
822.04
865.66
769.48
642.65
548.92
728.18
684.56
562.51
572.91
464.76
470.78
631.88
681.86
649.62
750.72
1026.07
981.73
3848.86
449.58
783.19
711.66
409.44
661.07
846.64
755.89
771.77
679.94
690.73
604.89
721.98
1365.10
703.74
461.65
488.13
495.30
613.07
675.23
610.30
432.09
435.56
607.85
764.25
501.63
584.05
650.08
523.22
601.51
841.68
767.23
754.96
634.70
579.44
644.89
666.94
650.02
3682.91
650.85
666.61
695.72
720.34
553.59
462.05
391.96
495.99
579.00
451.55
353.08
471.88
1302.29
591.12
644.70
747.98
587.71
629.32
558.42
628.62
579.02
608.07
552.29
593.75
636.20
780.24
701.61
731.39
697.77
696.96
556.65
632.10
573.16
707.84
708.69
739.55
652.75
3826.29
600.56
423.02
521.56
701.87
740.25
760.78
728.28
678.28
661.30
673.48
613.09
645.83
1463.39
692.98
685.82
594.26
533.39
525.53
527.91
541.63
500.33
534.03
399.46
433.60
472.25
604.38
633.88
738.65
737.99
646.03
434.60
528.73
639.89
751.61
720.34
760.86
647.60
3757.52
583.50
585.14
605.83
584.42
628.88
502.90
524.12
417.16
396.25
401.80
491.11
520.12
1317.67
572.97
646.87
631.59
546.69
608.59
670.27
882.49
700.26
636.30
563.19
627.98
690.48
902.93
772.30
658.15
466.46
457.39
449.38
503.09
666.15
742.81
679.32
658.12
569.43
3664.93
805.55
919.82
892.33
867.98
743.51
672.43
491.09
415.33
454.74
490.54
606.41
696.16
1241.73
439.57
397.32
484.12
397.49
476.02
640.93
753.82
662.20
554.68
450.42
393.38
520.34
1001.65
1076.04
1262.80
1261.57
1175.40
722.09
465.82
621.53
485.35
430.23
537.61
640.95
878.47
740.22
680.70
564.64
477.25
475.57
489.32
537.00
545.24
565.23
491.22
476.77
3684.90
624.17
466.04
451.06
692.93
669.53
648.66
610.11
583.33
603.19
707.00
761.79
722.80
1430.20
613.88
545.95
600.71
596.45
505.71
550.65
638.96
661.80
641.42
621.80
606.24
627.80
1000.15
733.77
895.65
747.48
941.14
958.30
783.49
607.62
513.73
396.57
478.34
394.61
4031.83
787.43
988.02
814.86
413.80
497.31
486.72
421.23
562.81
529.70
597.38
555.23
577.03
1464.92
844.15
759.65
761.45
754.70
751.39
642.16
608.72
605.16
695.63
610.84
705.31
632.23
737.24
676.54
748.65
745.34
582.58
422.23
440.47
513.59
746.92
1053.99
1259.14
1087.64
1491.59
439.27
415.91
369.10
435.56
398.17
384.99
413.55
535.95
685.35
619.01
720.72
3675.58
834.27
862.45
779.76
650.82
504.40
450.46
509.22
568.57
520.18
574.83
537.48
455.76
1229.42
721.31
630.09
612.27
544.64
515.68
607.34
666.84
509.20
464.98
580.88
628.93
529.01
647.24
606.26
580.85
638.96
598.54
481.06
564.46
477.33
611.53
541.64
540.16
569.49
3725.01
656.58
569.31
585.96
674.66
556.82
622.94
592.57
513.86
611.51
650.77
796.63
869.67
1307.09
808.22
706.49
746.34
555.68
537.64
629.53
660.48
575.58
520.99
448.84
521.70
482.49
576.79
637.85
815.21
744.53
830.02
692.14
561.20
495.27
528.65
494.68
578.37
605.40
3551.47
660.08
578.67
579.27
648.41
601.93
776.86
652.57
571.22
510.18
579.61
591.47
630.90
1276.50
592.46
594.53
591.45
435.27
603.87
508.48
461.60
465.08
503.51
470.47
593.47
556.43
687.02
639.93
635.27
559.21
490.74
465.32
498.48
465.34
518.99
581.03
509.65
434.41
3621.17
741.20
763.98
768.91
869.04
872.96
1021.59
1065.82
1164.02
905.50
477.66
1209.58
1456.88
619.52
587.04
855.51
1015.95
1026.16
1118.37
1018.74
715.88
447.28
410.92
502.95
448.25
622.03
518.38
407.11
408.91
459.90
442.57
468.53
452.38
428.49
475.62
568.17
591.54
3655.72
685.49
636.13
632.57
621.92
683.24
588.42
695.11
674.44
731.17
647.01
771.85
768.00
1541.54
810.70
745.49
468.78
478.15
457.90
494.88
578.34
671.02
672.71
745.65
687.01
750.52
694.38
576.51
466.69
508.73
450.23
471.13
560.37
583.92
527.49
561.92
501.00
614.57
3566.49
1109.94
1070.53
998.70
751.30
645.49
488.48
552.39
435.22
645.72
689.29
774.24
603.68
621.53
518.92
445.05
718.90
922.99
959.08
894.53
659.92
509.88
453.49
506.79
464.86
551.05
433.53
525.53
556.39
599.07
484.35
591.11
504.29
605.76
672.71
692.31
706.28
698.06
3498.32
757.27
585.38
573.96
521.24
464.46
440.89
518.49
525.98
585.70
683.22
809.26
703.06
1533.15
514.55
514.42
523.35
638.38
576.80
609.74
626.09
697.91
652.81
633.59
687.02
802.18
1062.39
1064.15
1039.64
861.06
484.41
520.87
346.32
438.10
536.15
857.16
925.94
874.86
1037.28
596.13
998.28
676.57
442.47
481.60
559.13
544.50
485.55
479.12
422.23
498.31
485.52
912.42
649.80
606.78
604.65
562.89
623.45
589.48
622.22
514.97
453.89
549.79
614.67
789.23
961.25
916.70
807.50
832.81
774.08
1002.86
840.61
588.10
417.70
494.14
415.89
697.68
3415.72
1088.69
828.00
608.05
441.77
457.97
465.29
544.77
694.83
667.76
461.25
506.67
439.15
773.99
500.03
556.95
548.45
566.14
557.25
768.64
788.72
849.83
731.38
685.30
568.19
469.96
682.78
591.06
554.14
484.34
479.83
350.61
447.80
473.21
393.50
579.80
528.30
665.94
3512.44
646.39
666.81
766.49
724.93
676.57
541.27
621.67
623.84
632.42
490.01
423.68
657.75
1563.12
784.00
765.53
835.33
749.74
480.81
496.24
436.81
581.43
513.74
553.26
454.91
549.99
778.25
989.81
903.45
832.20
734.04
703.14
635.36
701.88
722.11
699.10
642.10
517.76
3359.21
463.26
496.18
482.00
497.55
678.60
534.58
537.72
522.35
422.92
472.58
537.47
593.07
1472.92
753.64
798.75
730.85
596.28
518.43
679.25
720.49
683.59
749.11
844.08
711.91
569.28
503.66
484.93
458.22
501.51
537.46
605.37
614.26
653.92
660.47
699.25
526.01
503.24
3338.82
745.11
762.21
631.20
465.28
602.66
575.58
441.84
580.64
620.32
612.05
710.43
652.95
1481.77
574.93
586.75
664.63
682.69
731.53
786.99
799.70
853.93
790.46
718.69
626.28
507.64
695.74
770.35
910.35
829.09
655.91
671.41
454.82
497.56
463.19
516.67
507.33
473.62
3437.85
530.27
526.35
689.39
849.50
993.32
1046.19
1012.25
805.72
513.35
449.13
524.02
466.89
1468.90
734.57
725.79
601.87
560.97
424.19
526.28
437.96
528.85
454.79
595.35
588.10
574.42
654.97
662.38
560.55
598.57
605.13
647.86
603.20
617.82
676.48
650.59
543.01
649.50
3282.55
808.24
699.95
695.38
770.45
631.21
458.77
518.99
711.37
751.18
849.40
917.25
686.04
1473.84
550.89
508.67
477.12
630.31
549.45
415.08
462.28
581.49
717.81
949.42
717.06
556.71
1214.00
782.01
444.94
433.54
481.74
588.50
628.75
661.32
703.24
750.65
881.69
817.70
2207.78
797.18
745.98
647.37
646.49
724.74
768.63
698.49
531.77
499.34
451.53
490.95
460.59
751.86
553.34
519.77
515.84
512.14
555.93
598.98
496.64
597.37
600.91
625.99
650.38
667.25
797.67
825.70
778.60
708.28
670.55
554.05
415.40
568.45
593.63
663.65
482.57
613.23
3357.55
570.86
588.10
672.61
676.55
768.38
635.36
635.83
598.57
614.32
529.65
437.43
451.10
1422.87
578.54
577.35
525.64
565.54
672.63
645.44
590.02
766.83
785.31
824.41
712.88
577.05
531.94
475.00
514.71
826.49
1122.70
1256.77
927.00
673.17
630.81
646.31
461.10
586.91
1130.00
580.36
536.68
532.46
430.07
458.53
382.19
416.68
445.27
491.35
470.08
488.30
527.88
738.45
685.90
666.90
553.78
513.23
511.78
525.15
601.37
747.19
715.02
741.26
640.57
3318.67
672.38
642.82
690.29
703.06
705.84
755.56
861.46
966.42
786.50
578.83
461.91
572.76
1104.06
450.98
489.75
567.22
739.38
630.25
488.84
589.11
655.30
861.65
736.94
595.40
551.71
586.47
590.73
611.25
669.78
749.34
663.36
677.36
705.49
820.72
754.47
740.61
643.44
3344.71
755.22
639.85
599.40
619.80
518.05
588.83
572.24
609.70
505.18
643.34
937.04
777.63
1116.68
1060.65
884.89
783.94
732.89
669.33
566.31
576.99
591.98
680.26
691.19
640.12
549.39
668.11
612.56
652.94
593.25
623.05
578.27
573.67
465.21
488.44
538.70
651.10
492.55
3349.97
608.37
587.78
493.88
573.79
583.10
717.92
634.59
612.54
583.48
611.90
602.31
688.42
1194.91
633.15
779.01
781.53
594.25
664.18
819.19
880.98
767.84
726.11
599.98
511.28
398.92
667.92
512.27
483.52
475.84
467.17
486.32
531.08
698.76
646.01
626.43
663.79
610.51
3303.78
445.40
601.00
550.15
595.25
546.49
684.78
698.88
707.11
809.53
816.93
648.55
465.02
1004.48
578.01
785.40
976.11
753.77
762.62
780.38
929.40
1179.03
1408.08
1224.01
895.11
3645.40
499.58
479.08
467.89
451.13
518.38
761.69
936.46
789.05
613.09
510.66
466.80
689.83
1178.59
891.82
651.08
436.79
448.46
507.29
621.78
643.97
652.22
568.36
635.84
599.02
3340.47
695.95
774.13
656.93
595.80
584.87
695.08
738.64
876.60
925.74
897.33
791.53
772.63
1095.46
631.57
526.46
509.40
549.06
517.42
511.27
576.59
598.81
671.74
663.39
658.83
541.34
584.15
425.95
589.52
689.11
820.62
654.06
669.61
553.08
573.21
617.18
736.37
779.66
3256.57
677.59
713.63
533.04
554.72
515.46
518.50
579.22
627.41
727.03
844.78
755.68
655.27
1126.32
596.92
502.24
504.25
421.39
478.36
497.76
589.98
565.18
514.83
487.18
541.63
563.28
722.62
662.03
676.07
595.45
604.13
631.51
668.03
730.22
615.56
606.13
604.16
554.09
3324.99
495.93
601.25
649.13
785.94
814.35
763.21
683.67
652.58
627.84
675.74
760.40
984.14
1432.15
709.36
544.67
921.92
1140.28
560.44
483.27
651.58
561.89
573.12
568.13
616.87
3170.86
734.99
680.09
716.66
665.35
604.40
590.54
697.95
642.79
716.47
585.95
646.49
633.63
1522.96
664.68
775.47
805.68
727.04
685.05
725.61
600.20
555.43
492.13
524.16
565.71
586.92
686.08
631.17
631.88
715.00
578.93
486.30
511.87
599.06
566.28
600.42
581.84
606.99
3034.36
603.08
616.38
637.79
602.64
659.23
785.57
675.47
627.41
647.91
592.04
605.93
547.84
1501.39
519.59
590.03
595.00
727.58
676.32
812.44
765.08
734.27
500.64
493.03
599.10
630.57
706.14
608.56
508.38
508.27
539.41
568.37
589.76
625.90
492.81
555.91
573.65
606.27
3128.00
687.55
564.82
691.42
643.99
617.97
619.03
601.76
596.81
567.32
624.00
600.39
520.86
1561.07
730.30
812.96
750.05
961.74
905.24
854.27
472.33
628.27
782.92
489.80
432.47
512.08
618.70
634.01
718.01
739.26
669.69
720.09
704.55
880.51
970.63
1038.80
836.88
728.88
3050.80
730.47
914.02
933.26
871.35
688.54
477.17
591.34
776.93
851.95
692.92
490.32
514.45
1467.13
589.23
608.24
591.62
690.62
612.91
693.96
638.80
613.02
546.62
622.73
643.56
717.11
759.16
618.85
635.29
594.93
620.79
616.05
599.28
628.78
603.68
559.81
548.19
613.20
2980.99
782.74
640.26
725.93
774.80
706.48
578.66
673.26
525.96
583.20
597.00
911.80
1042.29
1926.31
973.74
639.34
484.31
622.72
675.43
716.93
667.02
621.06
466.26
528.25
422.90
3023.57
405.58
598.89
923.53
640.06
470.34
589.97
652.08
676.19
728.49
611.59
573.98
729.63
1302.00
815.50
734.56
763.21
701.98
710.03
674.88
458.20
520.92
518.18
461.57
510.87
518.14
845.13
786.92
744.16
723.89
676.74
601.88
536.15
513.49
568.13
551.49
593.97
526.79
3033.68
564.40
618.46
592.81
730.57
651.75
675.70
672.82
688.65
660.73
708.96
604.71
715.17
1454.83
1095.27
1110.34
1211.24
748.66
678.83
1132.66
1053.40
480.89
539.66
596.50
622.63
934.57
765.06
785.47
702.60
635.70
606.47
552.57
520.14
469.13
572.57
670.38
755.60
656.63
570.32
689.43
459.64
529.42
727.83
733.67
821.22
680.51
607.03
544.21
540.77
589.81
2986.24
697.86
814.29
726.65
739.02
751.93
771.21
711.39
518.92
505.72
582.68
482.23
619.80
1259.44
648.49
514.34
548.84
610.29
604.29
534.70
641.90
600.83
635.07
583.53
586.86
561.31
662.53
613.49
705.91
716.80
818.35
734.21
782.65
697.05
761.78
725.05
636.45
528.78
2956.96
506.25
709.16
726.82
802.67
748.30
782.18
641.65
615.38
611.21
700.75
496.15
445.15
1059.41
539.22
594.41
794.03
734.03
744.18
674.30
625.39
626.66
631.50
526.05
484.59
546.91
733.48
667.02
710.72
669.92
652.18
661.01
591.48
605.68
628.60
581.79
656.06
608.56
2992.74
692.64
581.39
453.72
554.19
551.38
643.03
598.89
616.92
579.14
539.15
597.76
803.89
1471.01
1149.24
916.50
846.19
624.02
634.10
562.83
534.90
527.55
523.74
549.71
561.26
3014.46
716.86
580.18
533.08
475.08
514.25
548.71
626.90
603.75
591.62
555.84
622.58
620.64
1571.15
648.03
728.88
779.51
982.22
913.49
1125.25
1042.81
827.10
476.25
579.24
739.11
3090.43
509.46
676.45
712.15
738.73
649.98
577.57
431.21
504.52
630.69
671.07
660.03
660.74
1343.64
702.73
646.56
679.36
815.05
917.03
825.96
810.63
681.80
699.31
658.68
631.35
635.10
695.43
736.64
797.38
715.15
673.84
645.00
665.14
573.45
543.82
446.35
536.67
600.82
2885.59
942.59
955.98
871.09
691.87
453.56
542.67
630.75
510.05
480.12
503.13
507.09
461.09
1097.76
654.11
713.86
658.29
631.36
628.85
522.42
669.39
759.94
985.06
1033.99
1109.19
870.90
713.16
555.92
459.22
442.40
496.93
533.07
555.90
496.71
695.80
660.32
650.24
702.37
1982.64
752.28
755.44
672.49
690.49
606.78
754.34
677.78
814.49
799.80
634.84
537.89
467.16
766.79
627.94
756.24
861.61
643.33
479.75
465.97
511.87
535.16
887.12
990.58
918.17
698.12
845.95
540.32
570.81
512.02
549.39
492.76
487.56
475.79
506.38
429.86
502.43
482.25
2883.40
798.43
795.24
778.25
798.75
722.55
686.88
670.33
579.73
678.00
772.22
675.62
658.99
1355.24
977.80
1036.56
902.14
550.02
480.94
442.29
418.44
475.20
466.60
465.90
626.44
624.47
791.14
768.49
770.17
688.16
710.47
729.90
765.22
655.68
468.50
455.05
613.27
544.86
2797.24
506.03
553.20
517.31
700.10
736.33
751.12
688.22
647.17
622.77
601.67
517.63
585.03
1250.75
735.35
567.29
575.51
636.95
797.83
819.67
892.48
1033.68
662.04
456.70
585.22
2771.41
787.86
739.81
670.20
677.95
521.25
459.75
518.99
544.85
500.42
471.15
513.23
492.37
1564.73
615.50
647.74
631.43
710.84
668.50
645.22
573.76
546.04
699.60
632.99
662.45
631.84
730.45
702.55
767.75
760.02
720.21
728.61
549.47
482.49
485.48
619.37
596.05
709.34
2736.97
868.33
703.65
717.12
553.31
524.27
684.96
808.90
702.51
718.90
739.48
591.04
621.62
1565.14
765.73
688.30
506.22
569.21
497.66
683.86
891.09
1167.25
940.65
565.70
501.52
2908.78
612.02
794.40
730.32
825.80
653.54
677.81
688.55
1001.36
908.31
597.90
683.55
1064.26
1578.42
741.75
483.61
595.43
596.44
602.45
624.31
718.46
656.63
682.25
621.38
661.30
542.01
776.31
555.93
712.36
751.01
733.36
695.22
653.44
706.27
704.43
812.60
705.37
776.02
2789.06
1064.31
975.70
827.64
604.04
373.41
424.77
403.40
462.77
474.13
543.04
615.34
627.43
830.01
658.01
639.67
741.48
728.04
748.75
656.76
624.61
449.45
510.87
489.63
535.93
698.15
812.94
674.32
753.85
665.00
814.89
729.26
874.35
741.41
666.64
559.20
767.03
683.39
2710.90
625.65
713.99
821.99
798.49
526.13
486.43
528.32
563.44
455.36
572.20
507.34
556.79
1104.39
410.35
482.19
538.95
408.39
505.91
614.74
704.52
821.60
750.44
717.02
715.34
647.31
704.29
603.36
680.35
742.40
721.54
759.44
649.42
684.93
620.62
536.78
524.55
412.63
2597.68
677.36
863.34
942.98
970.89
912.08
847.36
768.84
491.77
609.56
482.86
505.60
506.50
1239.08
695.16
525.56
656.48
655.24
707.19
768.05
768.78
653.23
709.38
551.96
541.88
592.50
759.99
605.33
683.99
653.80
745.44
684.74
711.81
653.11
769.10
702.96
875.80
762.40
2620.61
633.10
670.90
649.66
614.69
517.24
467.68
489.96
485.12
522.41
509.65
585.93
593.20
1283.00
692.54
629.51
672.28
591.84
719.21
648.39
668.15
718.13
715.19
695.07
947.40
1062.24
1261.71
768.48
698.90
1361.49
817.20
562.92
864.55
1214.00
1263.97
985.63
559.92
483.02
503.15
461.40
603.54
818.24
972.60
779.01
755.18
759.98
705.31
652.21
666.77
571.48
2667.37
606.94
646.76
722.82
661.61
472.89
564.13
452.37
569.66
753.10
751.13
717.18
769.29
1369.87
633.89
509.56
686.25
668.54
633.85
637.11
572.29
473.77
509.44
529.28
473.33
562.54
755.64
729.70
820.32
797.09
811.46
899.26
793.72
722.47
822.28
629.76
593.22
609.25
2661.77
633.78
708.56
649.65
641.66
523.26
554.61
611.04
589.87
601.18
685.32
614.81
773.82
1344.69
741.75
658.10
877.22
899.04
921.25
868.45
770.32
685.45
624.97
528.78
461.79
943.81
1005.78
423.19
843.11
907.85
714.06
729.06
741.52
687.76
711.42
702.72
635.68
568.36
2595.32
614.67
557.48
459.79
437.48
486.43
729.94
786.56
812.43
464.43
624.18
504.57
481.15
1196.39
774.89
700.24
860.34
856.17
761.23
742.11
728.89
689.51
595.64
619.59
621.17
641.03
800.76
763.16
739.96
672.35
677.46
676.63
727.27
610.14
611.73
571.25
528.75
562.58
2583.03
594.70
607.23
615.80
518.51
626.50
620.65
639.26
653.08
680.63
633.22
655.59
685.66
1244.04
722.99
664.10
722.88
677.82
665.79
625.80
656.59
583.39
692.04
783.73
741.57
663.32
795.55
729.49
634.28
506.12
572.44
591.05
575.27
595.88
644.03
578.25
662.43
739.82
2499.83
519.40
425.42
456.66
668.60
753.11
866.42
777.02
666.27
598.07
636.02
602.77
596.41
1238.96
525.55
579.88
744.88
737.85
871.83
721.44
692.47
659.49
726.22
615.59
663.75
585.90
617.62
531.14
568.11
408.28
556.82
510.38
614.29
572.90
666.49
614.95
599.08
577.45
2639.31
487.74
662.20
690.33
961.86
921.91
942.15
815.73
515.50
420.04
471.49
763.29
898.24
1426.30
589.50
606.55
667.81
548.78
629.99
685.93
703.52
612.52
599.24
483.24
607.28
519.79
598.68
475.80
447.92
479.03
728.59
966.04
952.80
754.09
726.23
461.23
469.68
461.16
2450.19
637.18
653.27
568.06
609.66
510.17
591.32
533.20
710.43
652.17
689.60
736.91
793.25
1447.82
987.80
1042.26
750.51
360.67
447.93
549.64
649.19
718.25
713.66
502.06
541.15
2420.57
916.03
810.98
842.63
739.86
666.00
463.17
386.44
388.86
483.69
461.55
415.00
383.29
1597.87
582.29
643.48
659.27
712.94
641.91
646.44
596.76
677.19
614.76
596.51
556.94
653.15
696.02
683.23
646.39
852.92
854.52
908.67
727.77
720.94
566.00
436.55
457.91
507.57
2131.36
678.00
579.13
700.25
657.14
780.05
732.05
791.76
621.69
693.09
620.10
681.96
733.93
1644.71
781.26
788.20
795.61
842.90
820.91
890.40
472.05
423.83
412.41
503.41
623.39
822.66
1087.15
1076.63
1021.74
961.74
719.67
650.62
526.78
449.44
487.58
440.56
360.08
438.30
1894.71
457.61
451.50
505.44
559.05
804.25
664.95
674.48
770.99
669.28
693.52
847.41
749.48
1021.24
550.59
783.82
960.52
390.53
712.11
922.23
773.75
756.47
711.53
792.87
800.38
897.48
1098.54
999.18
795.76
472.61
432.73
550.21
683.14
846.81
622.89
467.28
405.78
422.38
1899.03
475.48
599.37
751.83
827.19
908.05
760.45
711.22
454.07
449.09
421.09
784.22
840.08
1074.29
692.64
682.93
553.00
544.57
523.56
595.34
630.38
545.42
443.65
471.27
453.99
2440.17
571.64
598.10
590.37
660.15
621.39
588.96
463.44
610.48
745.97
563.48
413.36
737.45
1485.15
953.20
780.47
698.46
575.29
440.29
387.15
487.20
433.05
576.57
548.59
512.77
471.73
541.59
458.31
557.50
627.11
716.90
643.40
662.73
609.91
631.65
525.38
602.67
558.15
2326.07
696.80
699.10
649.90
702.99
575.69
695.67
679.81
787.98
725.04
824.84
760.94
867.79
1434.19
852.88
531.38
408.34
686.75
393.90
475.35
692.80
584.94
536.97
427.69
520.63
603.39
779.28
671.14
710.98
704.61
642.87
596.99
688.11
657.89
644.09
649.26
667.02
656.00
2127.66
633.34
612.74
624.83
777.46
664.48
653.97
609.66
672.50
588.41
573.86
563.93
537.42
1034.03
484.02
486.47
566.06
477.66
542.60
527.66
514.51
658.11
610.04
533.87
547.99
576.27
823.65
742.98
940.51
990.89
1002.43
825.39
518.06
427.94
437.75
865.34
1111.46
868.49
2486.04
371.77
383.93
481.35
917.00
1181.41
1363.83
1112.31
906.89
759.80
578.35
523.08
1918.82
478.13
467.68
415.25
513.19
456.90
496.49
376.72
352.67
395.63
297.18
372.78
457.20
625.37
460.33
395.23
504.34
614.55
743.68
712.42
738.48
647.30
656.81
631.25
610.01
582.34
759.06
627.39
665.72
510.82
570.42
495.53
648.06
661.83
687.96
733.23
753.82
775.80
2416.54
835.62
997.01
1071.29
810.86
577.48
472.81
554.29
562.13
405.26
477.44
724.46
933.13
1472.65
772.32
752.90
817.16
707.63
668.68
696.54
862.52
823.44
674.13
809.70
582.19
336.24
521.53
372.93
366.36
396.46
719.94
618.99
575.23
460.58
445.45
404.38
369.16
438.46
2075.74
493.80
567.40
609.42
609.23
443.63
660.41
635.35
650.94
654.37
766.77
724.32
885.07
1398.95
971.30
673.55
419.76
349.07
330.39
465.91
613.93
573.77
723.26
681.21
794.17
731.48
915.67
776.09
731.47
632.11
484.90
417.41
522.58
786.97
1047.28
733.12
413.68
734.25
2240.14
572.63
802.83
1018.22
1099.67
937.73
735.19
445.70
516.18
504.93
849.49
804.46
855.99
1080.98
985.31
839.11
728.92
668.99
515.55
469.77
418.94
394.43
426.56
404.37
403.26
1911.59
426.41
422.71
493.40
541.16
581.06
519.70
557.37
571.73
669.63
657.41
698.69
630.48
1655.21
721.88
834.22
810.39
905.04
802.08
740.43
602.55
542.78
498.26
648.53
709.11
689.96
800.42
709.16
416.36
387.59
510.71
628.31
486.48
562.86
462.18
410.01
580.67
420.02
1919.30
1043.58
1054.91
945.90
803.28
792.69
734.33
927.64
965.91
1032.63
999.36
804.29
498.58
634.31
404.74
339.93
392.00
599.11
509.93
511.33
450.66
613.21
658.13
728.96
579.21
415.42
507.47
416.85
508.71
741.74
937.81
870.17
766.81
761.94
594.06
688.95
624.29
658.40
1905.78
553.63
431.66
530.63
641.63
763.29
876.43
830.01
554.45
518.83
688.66
737.57
648.70
1578.11
542.57
530.11
497.00
589.41
417.18
515.53
655.25
628.80
660.26
652.31
670.94
732.96
682.90
672.34
730.34
908.05
879.25
789.78
444.02
445.04
439.67
438.14
421.91
479.49
1671.06
675.97
653.79
645.18
551.77
751.36
732.08
696.94
818.94
1025.78
1000.35
866.17
672.34
1663.58
527.25
571.87
450.67
505.60
351.97
490.90
340.07
433.68
373.19
510.12
560.92
592.24
725.41
627.89
679.05
906.00
1114.36
1467.49
1503.94
1542.97
1103.47
538.58
788.07
2575.20
645.49
456.22
418.45
516.85
609.05
723.04
642.15
609.34
565.83
482.40
368.38
457.20
1167.72
514.56
535.64
478.19
530.09
584.74
533.43
588.27
649.68
576.75
614.92
592.96
581.58
844.15
772.20
667.60
629.82
729.02
711.91
687.56
691.64
778.23
667.54
579.40
510.92
3877.87
594.38
743.37
642.28
650.01
649.57
725.93
741.69
682.18
619.99
694.56
742.18
643.58
1179.80
640.19
559.34
575.17
570.46
608.97
742.93
926.01
1105.51
1042.24
634.32
447.37
1701.69
410.99
369.24
529.92
500.97
634.16
689.57
838.73
560.63
500.98
425.03
488.34
530.66
1611.39
500.54
437.54
515.26
575.11
614.53
732.23
700.85
700.38
486.63
558.35
580.66
698.29
824.00
799.10
711.32
905.65
548.68
400.71
356.82
538.01
531.27
600.61
581.78
611.30
1508.40
826.86
820.25
819.54
491.05
381.67
607.83
652.32
645.16
894.37
775.71
800.83
655.82
1686.39
667.19
621.14
512.94
427.51
411.11
520.05
579.40
720.46
706.31
854.71
491.69
467.46
463.53
577.56
610.23
767.31
609.01
674.11
660.10
700.27
725.52
820.79
760.96
657.35
1462.71
679.65
635.95
648.12
604.93
612.02
582.58
702.00
753.02
884.04
710.36
786.85
785.43
1754.07
638.77
420.81
396.98
474.04
437.83
373.52
490.04
782.37
777.32
828.36
732.51
597.00
428.37
486.83
422.41
451.69
413.14
451.72
419.68
499.49
466.40
556.13
599.70
608.41
1451.98
699.85
681.08
634.40
712.36
705.25
628.12
646.16
635.75
711.37
816.14
1044.04
980.86
1862.71
880.32
751.78
592.51
673.79
723.34
735.20
771.24
784.07
768.93
510.27
367.00
504.03
796.64
655.77
411.33
419.59
432.26
599.68
561.93
654.47
599.26
744.62
921.27
1012.65
1741.60
903.76
795.10
756.45
637.41
508.21
448.84
484.27
484.10
884.70
1101.85
1163.49
746.63
577.29
755.35
440.50
523.91
634.40
681.96
782.05
881.49
1013.40
954.78
909.90
790.89
3939.35
530.95
472.16
414.14
385.89
404.18
468.87
563.23
612.86
728.55
687.32
565.87
564.95
1212.73
607.30
562.94
711.55
707.22
818.04
840.80
938.74
862.61
865.76
630.32
512.32
564.20
667.57
582.40
670.07
553.38
609.69
422.26
560.07
525.21
474.73
591.26
579.60
463.52
4006.62
455.80
437.85
450.68
509.93
528.02
502.77
490.62
659.73
609.71
783.41
682.77
714.14
1430.37
634.43
622.98
583.16
668.89
633.71
593.89
752.40
752.13
744.01
673.05
657.93
437.99
557.84
470.11
687.35
700.43
832.78
821.80
822.37
746.13
812.82
623.43
650.16
530.79
3742.00
581.09
609.50
454.52
634.64
669.98
621.84
655.96
769.58
705.09
549.93
631.99
608.83
1412.83
812.98
727.10
859.67
620.44
424.17
445.89
396.55
406.53
390.96
497.22
566.16
508.42
577.44
496.33
607.28
555.01
449.85
625.87
867.52
1008.86
969.42
686.40
449.35
448.51
3723.61
1018.78
957.30
611.08
440.22
462.92
510.02
495.51
490.11
525.37
634.79
553.52
828.04
1452.27
715.50
628.91
558.65
686.10
820.17
664.09
719.62
684.74
636.01
623.43
444.74
493.90
647.89
631.61
531.83
355.17
441.97
406.17
536.30
527.22
688.01
760.54
732.00
626.29
3767.63
730.21
798.73
702.91
793.62
667.81
680.82
658.08
446.87
445.82
614.12
586.55
674.95
1426.11
754.33
620.60
628.73
521.20
688.78
597.13
723.26
691.19
848.80
754.88
801.90
596.09
718.94
620.14
645.83
746.75
936.40
807.39
604.01
396.17
670.40
726.40
606.71
428.99
3737.85
588.18
614.62
600.16
742.49
680.81
728.04
556.14
655.19
651.29
687.09
676.34
806.06
1451.50
702.85
635.71
595.84
515.28
577.30
572.33
737.53
670.33
671.91
702.55
689.75
604.68
743.28
602.08
648.03
630.70
811.60
786.19
762.06
600.85
450.27
452.29
532.22
539.81
3711.24
484.31
647.70
670.27
718.50
664.48
722.24
655.32
653.90
502.46
496.87
451.76
492.28
1268.05
577.12
468.64
467.68
655.28
938.80
1119.33
1244.75
1023.61
650.23
444.18
490.23
2091.50
897.04
615.15
558.64
418.06
356.16
444.09
586.22
500.54
500.52
453.50
650.18
778.04
944.80
509.05
510.44
519.12
447.03
482.35
514.30
507.77
633.64
648.74
695.56
692.54
780.16
835.98
728.63
523.67
434.11
417.72
463.10
452.75
477.30
602.42
883.64
766.77
790.62
3682.57
722.41
724.67
874.78
899.44
922.68
751.36
743.42
490.51
504.88
476.98
430.05
439.52
1669.49
476.96
448.63
444.81
516.74
517.18
645.57
600.23
581.76
639.21
791.62
649.50
636.43
773.82
845.74
907.46
927.58
660.64
592.21
498.94
614.11
612.23
706.51
681.23
711.02
1424.09
770.12
681.39
730.97
572.65
476.03
510.93
491.89
574.32
606.76
493.73
511.37
517.18
1695.98
633.95
793.06
609.22
576.41
458.99
767.60
790.69
756.06
615.17
640.04
624.60
529.88
648.43
404.65
419.34
476.93
476.23
525.71
430.91
616.68
544.61
688.74
632.89
656.50
3691.12
777.13
823.46
739.55
711.36
779.08
729.58
544.14
388.23
520.99
586.40
694.90
629.38
1788.84
731.71
1077.03
872.65
720.49
448.74
450.25
445.03
474.61
480.50
659.32
683.15
3785.33
769.49
761.29
627.31
606.74
478.42
465.86
535.48
670.94
607.87
643.49
509.55
396.88
1277.70
777.49
742.11
788.03
679.10
697.61
562.99
645.76
548.11
577.84
362.78
453.74
527.35
632.00
514.42
618.74
560.13
654.36
637.76
828.77
946.66
975.95
811.51
843.55
752.54
3708.28
461.03
442.11
413.43
555.76
590.94
697.93
445.11
481.28
511.54
501.72
510.99
533.54
1214.90
482.60
584.27
620.18
663.47
795.20
824.02
931.87
776.81
723.88
630.04
768.30
766.47
780.40
524.28
688.84
665.63
592.42
572.82
636.47
587.69
495.78
508.09
438.20
382.59
3718.74
558.16
509.63
430.25
445.39
443.51
518.94
573.78
630.46
714.94
769.90
829.65
966.78
1487.80
795.22
610.28
537.36
420.39
407.62
474.84
724.22
869.13
1121.60
1013.36
1077.05
2736.14
968.41
683.81
551.79
465.94
474.91
372.63
400.65
452.06
477.12
463.47
479.82
456.49
631.62
587.93
598.16
553.26
674.03
706.55
922.51
667.73
406.43
488.68
451.54
434.03
3615.30
745.85
785.35
691.02
755.82
693.84
718.38
655.59
718.91
646.22
673.40
566.40
655.29
1413.60
752.64
739.65
686.97
464.75
403.15
454.88
607.95
667.75
696.17
714.25
691.26
634.83
680.44
575.21
652.04
644.92
674.59
576.86
469.57
550.88
635.99
651.26
589.15
593.37
3645.53
583.57
574.74
474.40
519.92
560.48
634.22
711.33
629.49
537.17
552.77
586.50
804.72
1491.72
650.17
485.42
443.22
538.80
641.43
613.77
644.33
609.07
508.83
404.32
539.50
510.41
722.65
618.11
555.08
420.21
549.35
430.18
475.39
596.03
696.08
652.06
694.21
716.12
3611.51
846.00
711.84
727.50
670.58
651.09
619.98
510.17
635.05
651.04
708.91
567.71
722.19
1458.32
684.29
561.26
519.48
609.52
651.94
685.31
808.17
885.43
875.64
877.78
708.23
443.86
660.15
646.01
518.09
533.63
692.29
715.37
800.15
467.94
811.49
1040.41
770.97
481.82
3403.02
776.38
893.23
1023.11
1130.61
1221.12
1187.24
857.85
819.05
808.89
779.34
459.99
3752.27
504.50
519.22
558.79
401.57
421.52
476.85
527.35
581.13
661.28
772.76
668.41
928.20
1450.68
1022.92
812.28
756.16
459.05
455.06
547.47
515.62
446.92
495.88
574.03
707.94
3430.81
765.08
523.23
465.21
649.63
456.24
592.29
483.34
493.07
606.18
510.59
515.12
438.04
1764.86
777.11
780.75
774.43
714.22
665.61
749.38
702.12
801.10
766.95
700.61
680.08
761.19
793.78
806.15
523.76
562.01
650.22
693.41
623.48
732.97
708.84
687.80
663.17
615.17
3422.77
830.15
724.48
682.06
566.88
499.74
464.74
473.46
484.73
515.56
597.29
616.86
609.92
1769.12
561.11
687.58
647.93
757.97
742.70
802.18
746.74
794.23
631.66
561.84
423.11
427.21
556.83
622.10
638.31
863.06
812.21
711.30
649.77
610.74
427.36
459.93
417.86
482.55
3473.86
733.00
694.54
603.37
631.17
649.33
613.06
642.07
611.83
667.54
592.02
625.65
606.81
1773.82
911.20
1169.48
1120.86
1005.81
580.88
724.07
859.06
468.37
453.60
535.40
648.82
2258.94
895.81
869.94
709.63
576.57
521.94
452.08
482.30
447.98
429.48
516.54
541.45
584.42
960.76
918.75
863.11
906.35
729.30
609.78
549.01
448.71
454.97
451.49
406.96
565.06
521.99
808.69
729.25
890.50
737.62
599.17
476.21
598.31
511.97
491.46
488.26
563.26
647.56
3576.05
1022.63
990.92
872.50
671.67
669.55
520.67
477.12
615.58
563.56
504.55
410.08
526.58
1306.58
795.07
609.47
507.07
474.34
447.34
621.97
729.31
598.74
602.99
434.18
444.37
418.15
704.30
906.96
1090.12
879.82
868.09
674.40
634.91
533.62
474.75
543.83
620.31
590.82
2196.87
620.83
582.32
565.44
701.12
676.56
716.12
544.31
600.67
556.90
641.18
662.93
545.67
739.35
563.60
495.13
579.05
471.46
545.85
421.63
519.18
498.59
520.16
641.65
800.37
764.94
901.64
717.20
695.81
516.97
664.58
597.40
590.17
605.94
749.74
681.10
708.71
477.67
3355.22
621.80
701.71
788.17
929.54
844.79
862.79
593.79
428.79
514.97
556.41
445.94
607.72
1046.71
629.01
599.77
739.62
630.53
741.39
670.37
691.48
629.31
589.12
585.16
771.29
701.56
989.35
723.92
712.92
572.78
559.73
442.04
534.13
503.67
532.49
523.78
545.13
524.70
657.63
747.05
771.33
763.27
794.79
693.21
617.64
488.21
441.25
514.98
565.43
495.38
716.50
3331.93
757.87
733.84
635.49
437.81
468.50
514.07
644.11
633.27
674.01
624.95
722.43
613.39
1842.08
659.35
753.41
709.21
761.51
740.41
890.63
710.84
610.85
541.37
586.63
567.13
703.77
625.92
558.76
454.09
735.73
708.91
668.72
436.78
479.43
439.92
545.11
530.57
541.44
3282.03
814.10
606.11
575.33
581.04
799.85
750.38
959.96
909.02
955.18
624.67
498.51
445.46
1720.75
548.52
694.71
636.38
617.44
458.53
453.23
416.97
502.58
509.76
510.25
511.08
460.81
606.17
776.71
937.45
1048.17
743.74
630.88
497.23
562.86
635.33
788.15
848.13
912.64
3189.47
737.15
414.69
506.98
764.82
1072.75
945.29
496.53
478.91
693.77
637.76
804.73
689.01
1869.40
696.88
787.09
710.67
720.98
598.52
663.14
566.74
564.51
528.48
641.32
574.57
698.77
861.71
786.69
434.46
514.17
456.66
463.20
574.00
539.50
554.19
641.24
661.23
764.42
3305.14
927.51
778.94
767.72
621.70
653.08
554.57
654.82
583.49
614.60
574.14
524.94
475.80
1723.64
423.71
535.28
501.48
500.10
557.85
686.52
649.35
702.83
630.87
640.01
421.01
467.41
575.90
611.06
534.69
667.67
494.78
536.50
597.02
757.47
759.20
800.32
703.19
718.47
3199.64
651.48
734.65
760.11
661.67
624.00
657.38
704.43
718.95
728.15
753.57
675.23
572.83
1748.84
630.87
733.22
721.86
1005.86
791.50
719.97
529.57
488.71
443.04
494.21
486.40
646.15
737.33
808.71
761.50
737.08
561.51
478.87
337.30
465.50
499.74
616.76
600.28
596.78
3242.92
729.59
677.69
708.45
675.11
654.28
597.21
717.00
658.75
654.51
493.72
535.73
516.88
1766.63
410.08
699.12
627.94
682.33
590.62
606.88
617.63
592.24
547.22
638.16
609.58
676.35
696.46
760.50
993.40
1301.51
1007.62
514.21
1086.82
1061.72
393.88
703.88
740.35
866.37
1220.01
1253.64
1391.69
1530.50
1103.82
814.88
479.01
503.97
668.65
766.31
590.26
496.39
671.68
665.71
716.87
632.84
582.42
578.21
574.92
652.08
503.86
476.31
712.56
464.57
3252.93
833.95
560.86
576.29
648.87
698.05
564.49
538.45
542.03
533.60
495.45
591.61
519.45
1837.44
637.41
702.75
615.76
763.21
717.42
620.00
560.10
673.98
615.97
893.77
801.46
730.59
598.20
565.81
587.19
573.86
493.36
539.34
443.16
575.56
711.19
784.98
865.70
1020.23
3265.25
757.95
515.66
422.26
449.64
565.32
506.38
631.86
536.24
581.97
585.87
574.19
561.88
1868.39
601.28
620.48
708.06
879.23
714.11
653.16
453.90
593.27
499.66
681.11
659.04
868.05
933.03
901.20
740.38
679.50
551.36
543.26
423.24
453.10
377.88
444.61
557.29
658.91
3179.47
744.67
633.12
646.13
596.16
618.53
569.36
639.34
610.80
708.09
629.35
718.40
653.67
1776.10
721.00
708.35
657.03
642.07
659.52
556.75
470.95
621.01
581.89
622.57
529.55
604.08
607.62
670.45
654.63
699.50
697.06
722.40
770.93
823.25
752.10
769.01
618.00
671.02
3073.82
547.38
488.83
538.69
589.95
645.77
664.71
652.48
599.42
670.16
695.98
569.49
585.08
1824.41
768.77
838.80
715.49
612.41
539.91
507.80
530.15
526.07
474.47
652.28
1011.34
1132.56
870.98
629.63
1736.10
1651.99
1097.69
473.70
508.95
656.38
750.80
1050.31
1166.80
1159.01
1080.81
1024.35
911.01
832.32
717.63
543.64
632.55
656.71
682.83
644.40
548.52
632.73
1137.98
658.55
564.74
611.38
501.86
491.31
479.57
671.99
747.62
863.76
789.83
733.66
594.57
655.18
538.73
474.14
390.74
469.63
458.79
469.90
484.06
629.23
590.05
642.31
539.65
3243.58
685.90
794.88
712.97
876.68
902.55
1088.67
1128.65
970.49
660.33
633.54
466.52
847.81
531.18
530.51
480.05
494.95
429.90
497.68
489.96
620.27
725.40
911.30
658.81
615.43
3181.91
575.73
621.64
659.44
631.00
677.25
615.35
699.54
736.71
871.78
701.75
650.30
486.16
1831.07
436.58
447.60
580.14
578.22
620.44
668.83
711.95
659.83
751.04
776.76
723.55
697.29
770.63
693.30
775.70
1014.84
1053.62
967.65
623.70
545.24
1030.90
795.85
462.13
697.63
2231.94
650.81
599.02
514.23
436.71
550.63
616.25
656.97
582.91
648.52
618.55
676.57
655.69
974.46
688.20
743.69
675.03
821.57
679.44
711.31
526.75
532.71
517.08
621.71
750.98
1006.81
1201.02
1013.93
560.41
656.26
998.88
780.89
499.88
717.60
823.99
1015.65
979.70
859.21
2228.55
782.55
688.73
627.10
500.36
550.95
502.85
584.30
461.53
521.86
457.11
571.43
524.24
889.03
683.07
707.95
683.13
709.47
660.38
796.37
674.15
734.49
643.02
659.69
551.39
595.92
609.09
689.40
662.16
569.69
596.40
515.48
575.80
746.46
772.68
930.44
821.57
852.33
3010.89
622.67
536.74
747.11
761.73
765.02
602.87
649.71
512.03
510.81
509.80
400.86
448.39
1824.30
579.26
466.86
615.06
707.98
663.59
672.82
641.87
702.35
530.73
576.29
506.04
562.88
706.85
609.16
565.17
659.11
552.70
673.06
490.59
597.31
508.82
608.23
559.51
503.75
2966.90
645.01
682.49
867.10
838.72
910.08
698.46
666.49
509.35
562.14
533.49
527.76
523.26
1924.83
751.07
774.39
678.63
780.09
767.10
740.24
623.78
660.81
709.82
628.26
673.04
802.89
1146.35
1062.40
895.54
776.79
635.16
629.10
529.03
495.68
472.24
439.61
523.76
597.06
1072.75
479.51
513.97
523.04
441.87
521.57
492.60
534.41
634.61
604.87
664.65
742.60
648.69
887.24
673.23
621.01
620.64
582.82
503.15
546.29
605.73
898.25
827.67
903.34
797.49
3074.39
738.46
780.80
786.14
798.23
648.93
728.80
644.03
599.83
415.59
526.40
517.61
541.40
1231.68
749.00
729.38
818.21
714.96
723.91
650.62
480.95
472.23
449.34
556.48
579.13
540.43
765.49
696.95
710.68
673.50
734.84
751.19
716.68
651.51
635.03
545.30
605.53
638.17
2993.33
889.59
962.43
927.60
841.96
559.95
576.48
592.95
531.35
530.94
664.81
804.44
973.84
1480.47
800.81
635.08
577.39
529.40
440.96
525.77
493.51
479.33
597.96
922.33
1293.03
1261.48
1114.81
647.97
578.32
683.97
718.43
705.48
780.62
704.17
781.47
822.84
991.17
1106.11
1447.12
1014.72
802.04
464.51
1186.74
1457.53
1268.28
888.82
453.95
435.45
545.13
509.23
642.30
554.28
541.68
519.38
551.76
558.83
644.96
481.17
604.41
669.92
663.35
638.63
3039.60
762.65
760.85
688.73
793.81
777.17
717.61
649.11
763.43
754.70
801.79
855.04
861.74
1181.89
574.03
490.33
568.41
614.91
757.05
711.75
780.34
661.96
534.75
493.90
744.22
884.72
698.19
573.89
450.21
499.57
807.52
906.46
948.24
770.21
714.40
618.10
645.25
533.21
2923.27
483.60
520.33
514.72
582.12
587.95
660.61
596.74
608.61
543.63
509.36
531.35
598.02
1196.17
550.11
602.68
687.72
673.81
819.66
669.04
691.32
622.50
674.76
735.62
655.82
593.06
981.32
993.09
1034.24
807.10
769.36
715.27
880.75
898.09
912.46
814.46
682.83
542.56
2808.91
420.29
489.49
494.05
474.77
411.25
430.52
496.96
491.66
456.36
481.92
513.24
596.33
1213.51
573.71
577.92
578.67
651.23
691.50
599.01
712.49
674.67
691.47
678.66
733.49
852.38
1137.82
972.61
1029.36
893.34
724.35
617.99
534.94
486.82
496.62
486.00
500.57
460.44
1899.10
555.05
633.38
692.72
944.18
874.28
855.29
623.49
574.95
502.26
595.06
567.36
660.48
859.63
728.66
719.30
607.66
706.37
993.81
929.65
762.56
625.80
663.45
664.86
742.99
725.92
668.91
453.76
542.78
554.24
578.90
565.79
668.97
657.18
797.14
627.46
504.61
524.44
2766.73
607.42
675.73
646.49
645.78
551.96
689.29
824.21
1164.82
877.76
663.80
537.00
576.26
815.26
661.40
550.18
554.80
547.84
694.89
670.37
755.55
720.78
700.34
567.56
601.49
612.30
875.69
743.91
868.12
769.57
595.96
470.88
590.75
467.31
652.92
662.49
521.32
510.92
2793.33
728.44
747.46
447.01
840.47
584.13
596.10
732.55
748.99
743.02
753.26
673.72
710.84
1456.72
949.18
831.50
891.39
797.92
855.04
700.04
768.31
738.00
558.63
614.53
648.90
571.35
588.08
529.61
638.60
604.43
676.06
696.67
825.46
781.23
773.53
625.44
510.32
515.68
2804.25
485.77
602.46
634.81
793.85
765.17
740.50
740.10
928.91
767.85
696.50
668.44
602.63
1082.44
536.45
492.37
581.16
490.86
622.29
533.91
600.40
596.71
661.13
599.83
598.15
604.40
793.25
696.53
669.86
552.38
619.93
583.84
713.25
679.67
686.45
647.64
640.80
641.19
2626.77
721.91
707.07
707.84
641.64
565.88
648.01
658.62
737.70
821.91
1037.90
1013.49
1022.00
1067.05
788.96
693.49
589.21
735.83
723.64
466.81
646.02
776.29
805.85
607.79
569.10
2787.57
724.24
701.38
695.79
622.49
778.87
855.23
907.66
848.88
721.09
519.27
465.30
440.61
1918.78
418.48
483.52
493.70
467.58
528.05
563.37
525.93
715.96
980.58
1135.14
660.12
675.39
460.10
510.18
460.27
637.77
759.53
822.47
729.01
694.14
641.57
654.43
537.49
599.79
2375.97
714.07
762.41
820.26
772.82
689.80
526.41
476.54
487.67
566.58
576.07
529.09
486.56
835.00
601.84
775.27
816.27
751.22
523.96
601.67
709.72
829.95
842.01
886.43
825.63
899.03
941.50
765.03
427.54
468.63
571.14
872.52
804.11
866.25
673.00
541.21
511.15
492.16
2614.01
721.85
758.33
701.33
552.09
570.24
471.11
589.35
684.86
724.57
634.97
693.49
630.86
1950.91
646.68
714.42
553.35
612.99
590.17
694.61
765.95
853.64
760.86
689.47
586.49
547.83
588.53
607.32
557.36
570.00
691.63
655.35
694.56
690.12
587.76
673.70
651.01
681.24
2575.88
747.06
644.31
714.97
684.96
887.56
837.06
940.33
845.78
857.04
754.32
666.62
541.11
1832.22
711.13
786.87
388.40
514.09
640.76
571.26
539.28
551.38
489.10
543.35
553.40
557.70
838.70
980.53
844.66
826.33
710.94
755.72
776.60
920.58
835.67
782.72
639.18
594.32
2569.34
530.33
517.10
486.12
503.04
627.56
580.20
614.58
469.87
555.04
581.01
676.74
650.12
1928.68
671.95
729.54
729.58
667.31
617.06
670.88
531.88
584.79
719.85
817.17
650.57
583.83
632.14
622.53
675.94
683.97
728.36
911.04
742.71
675.91
560.57
494.63
436.55
463.68
2702.61
451.61
386.97
514.39
539.89
553.28
490.04
592.35
555.71
577.01
623.82
556.89
585.85
1987.79
652.65
744.91
622.18
606.27
564.55
596.91
739.70
1012.58
993.20
913.86
751.30
683.59
640.72
637.18
803.72
868.67
611.76
511.34
387.33
638.99
711.70
930.07
954.78
923.76
2661.90
843.89
672.09
687.36
787.74
798.62
847.11
853.11
829.76
588.45
983.92
1761.59
1535.01
914.98
668.21
794.93
845.09
898.06
849.38
744.20
596.46
555.13
508.66
628.45
689.75
2537.06
720.34
605.12
482.60
585.23
463.01
535.22
480.98
716.15
739.50
667.04
650.96
824.64
1479.45
933.57
954.12
950.60
770.73
621.25
418.59
466.66
489.14
501.87
510.27
599.47
666.11
952.92
786.58
759.76
526.26
518.77
539.05
660.75
496.80
655.36
626.57
670.39
573.93
2669.84
808.19
970.60
765.54
725.94
663.47
583.68
614.10
810.53
673.70
679.97
541.51
586.35
1172.30
666.11
598.07
560.49
431.73
576.83
510.77
600.53
614.18
605.31
457.25
439.36
396.16
548.63
454.67
631.92
622.91
812.05
872.81
894.12
581.86
452.57
511.70
870.49
1005.90
2838.24
911.68
800.19
699.78
689.48
680.58
721.87
599.10
548.81
368.96
425.89
476.46
486.74
1038.35
459.39
465.72
507.46
491.99
558.57
568.51
591.22
607.30
638.56
644.88
934.29
970.38
1230.19
968.39
671.71
390.91
500.61
406.21
820.71
862.14
875.64
803.41
690.91
622.05
2529.89
842.72
880.52
775.91
749.42
530.04
629.07
639.95
669.37
637.38
645.11
691.82
812.33
1444.82
796.15
711.43
633.21
446.62
514.73
451.94
530.26
541.31
523.58
625.61
816.56
856.77
1084.36
915.58
867.44
682.35
656.01
646.81
508.85
399.53
429.49
416.79
573.81
467.94
1916.31
453.84
604.79
628.46
813.69
690.68
875.47
1019.90
1044.05
747.35
613.87
383.41
479.50
514.41
627.40
639.37
783.76
725.10
737.72
626.24
711.19
593.17
624.78
572.27
596.22
2407.72
779.39
726.17
752.35
608.49
619.32
676.22
617.51
427.56
450.27
583.09
848.43
738.08
1968.73
587.73
499.97
455.19
432.30
530.26
670.30
616.03
680.71
719.59
837.10
812.64
981.94
1043.75
1098.59
1034.96
1163.26
928.74
577.74
472.93
630.72
400.16
398.22
480.64
449.73
427.29
454.63
392.19
455.21
562.08
636.28
736.67
781.35
824.48
886.25
863.18
799.49
2401.66
468.86
495.94
556.78
595.82
802.08
877.26
1060.56
872.31
799.09
401.06
506.58
389.60
1885.57
539.63
622.29
550.99
611.36
591.18
847.59
949.93
1047.95
843.36
590.50
495.22
2453.65
443.85
615.78
534.92
552.98
555.48
907.59
946.09
724.25
387.33
445.68
525.09
569.70
1240.89
707.95
686.02
897.82
804.85
749.92
715.38
731.51
589.30
571.02
520.23
684.41
694.98
942.71
787.51
889.17
701.37
654.24
585.81
505.96
339.19
434.32
344.62
490.00
525.02
2488.46
775.24
817.10
702.30
598.26
648.77
755.17
842.36
832.29
744.85
656.24
592.96
723.45
1325.60
748.29
719.05
874.02
686.60
687.80
538.57
497.64
410.17
461.24
467.10
525.88
550.84
821.09
655.01
726.01
593.87
633.93
563.12
530.25
475.85
471.25
482.74
502.00
570.03
2362.24
927.43
970.47
616.41
472.15
450.65
577.47
731.91
883.23
1005.86
1115.36
933.84
861.87
859.08
589.18
398.39
469.36
402.61
406.34
370.61
604.21
564.77
666.95
502.69
406.07
430.12
636.94
486.97
687.65
587.91
645.52
608.50
622.16
674.11
732.53
763.89
923.10
665.58
2376.33
512.85
444.37
550.43
728.20
855.16
765.29
580.39
547.03
452.43
498.02
490.13
473.81
1181.54
651.03
644.10
725.77
710.88
667.38
676.11
755.12
640.27
727.91
699.44
834.00
819.70
1040.14
819.29
720.22
446.38
369.12
411.26
407.14
411.40
498.19
507.40
605.59
621.01
2033.43
711.97
558.42
385.85
422.28
445.09
816.18
886.05
916.55
883.70
743.92
676.35
581.08
853.63
760.99
650.41
584.24
513.61
611.00
495.57
506.56
475.96
482.66
468.92
640.69
567.82
870.98
736.29
800.70
701.01
723.30
593.55
534.91
516.62
561.43
489.76
559.73
603.98
2238.82
768.25
835.30
785.71
612.14
409.58
396.18
381.00
664.55
618.73
755.30
756.54
884.98
1492.64
924.22
669.14
468.90
352.41
522.52
517.82
757.21
735.44
853.02
742.41
741.96
517.51
699.44
551.07
595.90
502.59
435.73
420.47
459.99
491.80
601.42
517.00
558.45
606.18
2218.44
578.95
468.42
765.27
919.62
913.44
908.94
720.24
796.49
737.43
677.21
465.25
506.29
1103.36
509.72
474.17
511.41
665.49
963.69
911.68
862.47
450.11
516.16
585.34
409.33
365.40
733.05
628.32
622.12
621.62
801.59
831.29
866.14
863.09
734.06
621.78
495.27
383.92
2022.96
652.31
900.79
850.31
900.60
826.84
821.63
748.05
819.92
723.45
758.65
600.53
582.85
1161.89
437.69
434.83
543.45
508.28
661.42
629.42
709.26
517.66
620.38
602.35
483.32
410.16
512.47
457.90
473.19
467.17
547.28
510.13
525.48
547.00
674.80
646.81
721.71
685.15
3799.19
719.43
749.46
694.52
846.70
817.27
770.76
666.85
620.17
471.03
381.64
392.74
456.60
1234.07
743.14
738.78
890.62
818.70
796.49
707.78
760.74
674.77
624.45
536.91
539.29
433.57
671.68
555.94
537.07
578.53
679.26
645.05
767.96
785.25
931.76
765.94
748.64
587.52
2091.71
615.63
719.34
738.28
892.50
876.41
853.78
531.34
613.06
593.74
513.08
378.85
404.92
1148.29
622.86
652.94
822.61
917.30
956.89
860.87
509.13
433.44
597.39
344.77
422.10
496.84
830.09
729.21
715.56
418.89
357.05
322.81
420.76
381.97
511.17
580.91
829.65
929.32
3869.08
1072.03
1295.58
1244.57
1153.45
686.10
434.04
393.11
384.70
494.15
496.27
522.79
2017.82
497.41
536.21
494.54
577.64
598.87
798.02
853.16
1059.40
1074.75
839.99
527.69
476.40
778.27
369.33
489.30
621.80
625.29
674.79
677.82
833.35
810.95
799.31
662.76
689.64
662.56
712.96
642.38
746.50
717.67
731.69
562.03
568.95
552.89
681.69
596.08
614.68
489.56
3990.49
563.41
511.13
525.44
584.28
649.31
829.18
766.44
797.72
546.73
487.59
544.78
556.82
1111.21
636.71
680.99
782.61
651.52
699.26
732.61
715.09
553.38
539.06
473.24
528.14
366.96
560.06
510.14
603.42
553.18
560.71
462.99
462.48
444.62
524.13
598.94
731.16
680.27
2117.01
784.20
848.30
661.50
729.51
534.61
419.56
416.18
586.55
566.34
759.14
839.93
1022.28
1459.84
859.54
579.61
538.85
536.56
506.94
478.16
601.11
557.34
628.88
539.86
704.92
1840.99
814.40
749.46
856.73
645.92
540.70
664.66
782.69
682.30
690.12
714.40
1021.80
1052.38
1266.67
716.14
396.84
676.82
613.40
459.70
425.79
357.62
403.85
502.08
674.40
655.43
3901.00
713.82
851.77
826.80
907.41
700.49
637.96
518.11
501.58
516.74
501.17
405.29
673.95
1427.01
953.24
1124.21
1182.96
923.57
597.70
746.69
505.60
503.92
795.69
1015.53
1272.47
2282.66
1072.70
697.57
557.28
631.67
520.60
430.45
348.11
358.28
420.01
461.84
376.46
1814.63
438.80
480.04
561.19
589.20
612.58
499.76
520.87
564.41
680.87
737.06
643.98
490.76
2000.92
534.13
607.00
676.31
927.25
801.45
802.50
553.99
682.14
688.88
660.63
607.59
619.28
639.89
540.90
444.73
735.47
700.12
794.91
487.33
471.14
630.93
808.29
555.70
679.07
1531.63
639.10
470.01
554.29
607.49
599.10
531.40
615.50
549.41
666.44
611.68
695.37
689.19
2163.12
742.81
763.38
596.54
583.20
500.06
672.51
447.20
605.84
708.05
870.93
627.64
411.24
571.01
454.06
525.52
805.10
705.13
710.17
630.57
666.37
655.37
710.56
581.02
653.87
1510.93
790.20
747.18
654.85
606.18
659.80
656.50
778.72
761.27
846.80
712.88
739.94
696.30
1006.91
588.29
509.63
485.44
496.40
496.95
702.99
654.17
752.88
611.30
758.86
704.84
841.34
1022.69
838.32
629.94
490.71
473.77
611.73
442.54
471.66
432.31
465.54
509.17
667.50
1658.97
1023.95
910.26
806.06
640.68
725.36
636.39
681.65
641.00
736.28
620.11
580.52
515.07
1932.59
473.06
526.86
552.64
604.77
661.78
770.80
682.03
522.99
411.57
534.01
384.94
490.44
671.31
677.11
671.45
771.48
820.90
785.93
579.73
644.62
619.20
837.16
834.03
890.77
1407.89
465.20
444.91
502.24
587.80
765.30
777.06
924.30
901.51
1033.64
991.88
997.81
792.10
780.71
490.60
572.76
357.05
505.51
572.37
732.89
745.38
563.13
450.72
526.78
747.07
463.06
492.93
513.58
556.65
772.18
803.36
917.28
809.77
730.23
447.80
493.23
457.16
598.09
1434.90
1015.02
1103.46
988.90
622.18
489.67
401.86
392.43
458.17
485.77
595.57
773.27
666.41
1021.94
858.38
810.89
678.59
652.99
471.66
632.07
622.05
734.59
618.29
637.51
494.08
459.49
631.45
955.35
1051.97
1037.30
769.15
608.20
537.00
594.43
624.54
727.64
792.54
843.96
1409.83
589.56
667.44
782.09
734.73
688.86
435.44
663.59
655.55
515.84
431.67
454.54
570.16
1383.28
954.13
957.58
626.20
468.56
414.23
490.42
499.97
614.09
490.99
583.17
688.54
727.46
724.56
723.60
610.55
626.59
470.82
567.07
664.52
721.54
558.38
676.41
634.42
631.81
1421.19
672.02
702.70
814.85
701.89
674.42
643.66
657.86
528.80
537.02
475.40
634.00
561.53
1098.78
643.92
659.48
651.10
797.56
557.96
460.36
382.32
514.38
708.69
796.77
684.43
646.06
768.77
821.60
733.34
794.41
667.84
711.81
610.82
638.65
615.02
495.34
474.32
608.23
1414.25
716.62
680.27
667.41
545.35
583.84
607.69
631.37
611.11
603.75
484.33
535.18
570.45
1165.70
766.80
754.96
701.73
714.96
633.47
682.60
717.93
862.31
737.05
773.42
481.22
800.78
747.08
478.45
492.70
624.68
549.62
616.82
612.77
666.49
621.89
770.04
734.39
665.49
1407.47
588.96
455.07
488.33
700.77
947.26
1171.59
1300.11
880.60
603.06
466.97
485.40
425.25
615.53
450.32
459.11
482.36
708.97
787.56
938.39
828.82
696.85
374.69
462.54
508.04
3845.96
706.97
862.82
965.12
866.52
749.06
607.82
592.64
640.86
455.39
473.53
555.14
638.29
1485.17
415.26
522.68
756.01
825.31
877.45
850.71
888.65
709.35
833.65
615.32
774.35
603.84
780.75
521.43
588.05
606.03
772.06
746.89
845.55
796.42
838.92
792.09
799.54
629.32
3730.24
451.55
384.20
488.73
615.52
628.84
718.89
383.50
528.97
607.08
736.85
710.44
761.33
1472.23
849.83
600.43
593.64
384.68
406.05
406.62
557.65
550.93
426.77
427.98
598.13
520.57
597.25
482.20
756.21
785.59
750.99
658.57
569.89
568.55
558.19
468.24
540.91
426.28
3831.05
578.61
607.88
540.81
641.13
613.35
669.85
650.16
696.75
621.41
863.05
739.94
788.95
1433.84
949.42
846.23
688.90
481.44
481.30
489.54
536.92
520.22
632.34
531.88
616.04
570.87
753.66
681.50
817.18
823.54
981.88
723.59
459.66
510.03
759.99
754.43
435.30
509.90
3674.90
717.80
875.94
862.49
837.53
761.99
767.81
701.12
690.64
671.19
574.01
510.07
638.47
1349.62
710.29
707.30
767.59
712.75
664.21
586.14
656.08
550.35
500.14
521.41
669.91
705.34
813.74
624.85
522.50
404.82
433.78
574.97
800.25
792.30
738.64
609.28
640.61
624.38
3898.15
546.64
465.20
453.72
542.19
477.57
468.00
462.31
622.30
606.92
572.42
532.48
475.65
1340.94
764.08
772.60
784.51
779.39
803.00
717.93
666.46
520.87
507.29
464.60
485.22
526.68
725.67
632.76
699.28
685.25
723.01
657.69
783.58
786.31
858.89
799.43
894.03
748.11
3547.22
738.75
756.89
693.03
672.14
572.22
677.64
607.47
573.53
456.22
401.30
445.47
510.78
1226.78
482.54
539.15
641.80
510.06
667.74
513.94
428.21
478.81
448.29
484.33
804.92
999.48
1310.85
896.77
749.30
482.27
394.10
455.12
767.04
866.15
864.49
682.43
620.43
558.41
2053.00
574.41
569.90
495.96
542.43
507.22
605.01
442.79
531.90
480.62
586.01
536.65
504.54
861.37
907.83
995.45
1015.69
638.94
470.93
449.46
445.92
585.57
551.99
541.06
564.32
3575.80
598.47
565.13
792.25
715.48
830.21
717.96
686.59
581.12
650.14
617.20
664.27
633.49
1209.19
677.21
764.67
658.21
655.50
426.55
571.80
445.15
527.09
527.99
653.68
615.91
693.36
793.39
669.69
483.67
596.76
600.85
749.02
663.46
696.98
668.57
850.88
1126.24
1458.21
2761.71
884.59
376.22
456.44
576.32
511.76
429.15
504.90
452.32
496.93
403.44
624.58
588.39
765.86
552.48
566.05
440.06
455.05
447.52
449.67
453.54
570.81
566.90
643.60
546.64
3767.51
685.50
729.48
675.74
744.82
678.31
693.36
616.21
695.67
552.19
670.93
644.28
782.97
1156.04
696.43
524.29
530.06
480.53
585.18
644.78
659.33
609.41
671.08
686.34
676.85
546.38
749.17
602.45
637.70
584.67
707.39
691.91
879.45
724.53
671.47
533.27
496.29
422.25
3571.25
593.10
674.89
626.40
723.31
605.28
613.03
609.05
655.94
627.10
632.35
594.62
567.03
1349.89
628.63
534.90
636.51
527.71
571.25
466.90
555.12
546.81
566.84
545.60
590.25
601.18
745.28
667.74
782.13
705.57
880.10
796.20
861.13
571.07
488.90
471.64
479.79
433.33
3569.45
829.83
822.47
715.68
774.75
646.87
738.64
617.87
693.46
557.11
589.48
526.83
630.26
1159.11
738.41
602.13
632.34
533.83
541.24
493.28
560.25
397.90
496.78
597.09
698.03
604.70
819.28
645.62
759.61
697.08
868.83
945.91
1219.08
1231.68
908.51
514.64
1435.19
1806.12
1442.58
446.03
611.32
846.48
1210.06
1207.73
1210.76
770.06
644.94
562.57
501.27
458.39
602.17
445.99
545.70
396.83
433.76
504.63
559.76
616.15
728.69
508.99
513.35
511.65
3833.66
503.21
642.82
635.77
731.77
666.70
789.86
742.76
931.40
880.92
868.55
369.24
590.38
1453.74
474.76
692.04
962.49
861.99
722.17
649.07
691.85
692.85
711.15
626.30
521.31
427.98
532.14
478.41
568.61
647.01
694.04
568.53
737.53
691.17
795.76
686.33
731.98
737.39
3503.21
839.60
916.93
888.24
1032.62
807.80
644.42
441.83
495.16
440.17
492.47
447.13
451.56
991.21
548.72
508.07
548.84
545.00
603.07
625.12
715.96
654.41
615.86
610.56
725.49
762.10
993.95
706.19
780.57
694.60
666.26
525.19
579.67
475.03
463.07
694.01
949.16
901.85
936.78
667.59
422.65
451.99
522.57
640.56
790.66
602.33
758.20
741.75
906.23
679.80
535.07
3624.75
462.72
490.47
600.00
529.14
622.39
522.76
779.08
691.63
625.32
526.20
596.57
527.46
992.77
527.26
621.62
626.79
719.89
694.72
917.46
876.80
727.23
492.36
624.18
562.63
636.95
690.80
549.92
441.68
529.44
547.36
543.72
536.66
736.24
787.49
913.81
841.50
745.63
517.27
553.12
448.40
772.85
913.40
1160.60
958.60
1076.78
1032.72
788.51
510.23
564.54
719.76
1277.20
491.84
1008.37
1127.76
1433.39
962.06
730.13
520.76
506.98
908.91
1357.40
986.63
2121.92
460.61
593.70
676.52
617.55
715.46
655.14
572.19
537.54
397.18
568.40
613.23
776.98
821.46
839.33
892.32
834.38
590.43
497.14
467.23
458.55
474.22
546.91
666.02
825.55
3348.48
1153.85
1075.18
960.38
614.79
567.41
438.25
539.18
473.19
448.17
556.38
854.59
872.67
921.12
467.68
540.93
409.91
515.82
527.32
633.36
550.43
616.09
478.69
545.58
466.91
3445.21
637.96
675.38
613.62
718.13
657.67
769.32
813.31
1003.47
996.03
958.10
607.96
714.08
1067.05
475.56
407.52
588.25
599.14
685.08
605.94
621.07
531.06
599.35
581.44
635.27
529.44
887.57
542.48
611.74
500.88
763.23
780.13
841.83
708.08
687.02
621.08
594.53
534.36
537.40
649.91
647.02
601.85
628.59
525.14
576.11
462.99
663.39
606.05
684.25
640.99
647.24
3377.99
683.76
657.16
640.02
604.94
716.61
739.50
830.19
709.02
686.11
556.72
495.74
459.80
1083.50
528.86
549.16
604.96
647.82
550.22
687.27
652.69
666.58
667.81
630.13
789.84
856.96
979.45
825.61
696.69
608.48
542.90
635.75
651.04
765.13
587.75
684.85
794.99
893.60
703.74
899.56
543.79
504.14
570.91
474.08
465.92
583.77
693.89
730.70
666.01
599.29
444.17
3464.30
497.11
625.25
650.28
929.42
814.35
738.80
495.21
486.14
549.67
424.28
560.63
819.94
1461.41
899.22
776.33
812.51
653.85
571.54
485.57
562.38
524.20
609.37
583.08
554.77
507.55
655.43
648.94
642.01
555.79
649.02
649.69
772.90
729.29
708.88
593.61
689.00
703.60
3368.47
996.41
833.26
423.56
715.46
910.11
589.32
433.19
559.62
763.23
1003.91
934.82
751.48
1244.07
762.04
556.76
453.11
489.92
750.22
870.50
746.88
476.02
426.21
430.69
468.09
549.64
735.78
655.00
719.21
700.29
815.52
770.15
893.92
752.25
618.12
453.80
535.72
590.08
3385.84
577.47
543.63
474.53
542.37
428.68
457.18
469.57
534.72
781.25
795.05
732.42
779.96
1343.92
775.89
666.24
637.00
548.55
651.21
645.19
633.06
481.84
636.20
639.24
741.30
690.96
922.59
656.96
670.66
531.96
604.98
514.23
545.47
576.40
685.71
647.73
693.40
588.81
3434.50
579.09
683.93
511.34
536.15
514.99
546.01
450.62
563.02
736.82
821.77
741.68
863.92
1472.13
971.40
827.52
785.81
646.40
615.25
521.55
545.76
493.50
572.46
609.69
823.13
772.26
778.06
661.30
635.57
594.00
619.27
524.79
577.91
489.30
586.43
499.74
457.89
459.83
3356.78
615.10
800.88
592.33
681.49
707.53
874.00
796.56
535.29
689.93
542.68
452.46
569.05
1096.73
716.54
790.42
1079.56
1081.21
1134.28
549.98
635.65
721.07
501.34
469.80
626.53
1168.19
731.76
635.84
790.88
667.04
680.47
601.78
671.02
613.89
711.45
623.06
618.03
518.62
801.59
649.43
703.10
605.64
654.06
557.73
456.20
454.38
541.95
644.79
946.66
1139.92
3414.74
807.65
615.33
445.95
484.07
506.60
636.02
495.47
437.42
552.53
746.10
920.61
1006.49
1100.80
798.90
552.72
507.24
645.22
464.02
461.39
582.44
609.81
655.59
555.30
581.19
3262.85
633.74
557.80
599.47
502.31
604.03
482.15
607.35
614.58
780.05
643.07
786.10
691.02
1330.09
751.42
757.25
633.23
696.32
558.00
608.34
582.10
723.66
724.06
725.06
686.16
592.11
636.84
602.66
727.86
737.44
520.44
493.45
528.17
587.18
584.58
674.23
554.69
665.33
3218.77
849.55
832.99
724.17
614.89
575.67
482.23
528.73
496.76
544.29
592.95
645.93
640.24
1395.91
708.97
633.88
684.07
801.99
817.83
710.71
474.23
559.66
597.31
792.61
664.28
546.72
526.93
511.03
555.47
673.48
834.31
758.37
577.86
614.43
714.97
827.01
726.08
782.21
3209.08
662.32
570.90
556.46
651.39
663.72
628.74
677.66
519.30
621.46
538.44
736.28
640.39
1141.11
505.26
490.41
571.01
1111.62
1129.21
1099.68
611.24
576.14
527.28
467.69
460.85
1170.21
614.58
832.21
791.11
831.61
603.72
560.07
503.31
540.35
587.71
633.70
663.86
649.62
554.81
786.69
534.04
656.48
687.19
935.78
800.87
912.73
739.48
789.80
670.86
703.67
3097.23
769.74
625.56
734.47
694.91
781.94
570.14
479.01
575.90
488.24
544.98
806.77
878.67
1493.63
865.33
706.24
512.16
455.19
553.72
599.24
511.15
614.58
692.73
771.46
752.75
756.65
866.43
684.14
602.36
590.77
519.17
596.50
593.69
623.81
514.00
533.41
526.46
522.75
3029.26
863.66
897.76
965.96
831.10
698.20
601.46
619.04
608.35
649.63
450.78
495.95
499.82
1096.51
510.72
575.31
482.28
585.31
675.78
776.23
893.74
976.85
760.68
501.99
591.08
514.66
495.97
511.60
490.77
722.49
587.24
736.97
784.90
914.06
781.55
788.47
583.69
611.10
3132.44
656.72
709.94
772.71
747.57
677.35
646.21
714.04
536.60
651.35
606.47
590.39
557.76
1135.24
506.35
437.12
499.24
589.35
678.25
732.60
544.79
707.34
599.68
679.91
613.39
737.67
831.98
696.05
586.79
718.60
877.61
767.76
573.70
846.86
499.43
599.47
667.20
830.29
3036.90
807.98
810.31
929.43
1139.27
1429.22
1378.25
1349.85
822.46
568.79
1106.34
1291.27
1534.47
492.40
445.97
588.44
632.44
753.18
581.20
679.59
750.15
829.83
607.52
630.37
3060.13
743.52
658.51
598.24
683.98
719.27
746.86
788.86
575.32
593.02
575.59
763.13
723.43
1407.27
669.89
684.19
655.35
732.56
549.62
664.31
720.09
864.96
805.46
802.61
614.49
485.10
460.48
537.42
484.24
503.65
573.20
667.93
457.87
525.84
566.04
599.08
606.37
661.29
2983.43
707.86
515.89
599.84
532.77
644.59
661.87
779.45
698.57
837.12
793.24
865.82
865.76
1439.21
512.83
456.89
524.26
505.25
620.53
806.48
822.04
948.23
870.73
887.62
676.57
717.94
798.73
918.01
819.61
679.05
504.08
568.28
476.98
510.41
483.98
503.17
489.08
526.88
2936.70
666.32
703.18
802.05
642.49
767.34
751.56
708.68
631.39
757.96
685.35
735.67
645.33
1207.13
622.30
654.79
492.76
518.48
524.87
510.60
517.42
539.04
590.21
681.95
744.70
920.41
1038.90
723.32
423.48
470.71
608.69
893.32
1015.02
1012.97
579.91
453.59
496.18
594.59
2995.33
807.33
753.09
706.78
638.99
653.52
543.45
543.43
523.85
533.57
631.66
737.31
645.34
1217.91
734.82
862.01
718.00
653.22
603.63
587.39
498.11
528.59
506.75
580.16
525.62
623.20
656.54
709.69
651.22
742.37
683.89
735.59
667.49
821.91
641.91
754.16
639.28
681.70
2879.73
754.70
536.88
628.49
589.95
513.43
407.15
500.14
490.75
666.76
545.01
524.21
529.57
1258.25
661.46
671.71
740.00
882.49
783.67
885.31
759.46
731.22
579.63
587.35
600.00
718.94
896.92
927.99
739.62
688.09
604.38
497.13
451.30
509.11
504.59
679.72
593.74
713.44
2905.56
875.91
713.85
561.80
532.22
675.23
603.66
776.81
834.45
883.50
709.11
520.15
487.33
1007.42
527.21
634.52
630.00
594.16
760.59
704.56
718.10
831.17
846.80
884.57
795.74
968.59
953.99
923.14
752.05
924.96
893.65
936.03
742.82
604.25
485.19
397.95
503.21
530.75
2839.91
626.33
533.58
491.22
513.86
567.74
578.76
743.64
480.13
510.37
426.07
476.23
531.49
1187.16
573.75
714.96
777.98
882.80
689.43
642.02
541.01
601.93
601.83
622.56
585.60
629.27
661.33
604.06
595.23
562.81
597.14
687.43
590.62
687.40
633.32
618.33
666.17
931.56
2892.54
1262.86
924.74
837.46
503.58
470.02
477.14
528.32
578.59
562.46
421.34
530.88
622.82
1144.86
967.40
1108.19
942.48
1103.42
888.23
1031.94
918.27
909.45
661.60
625.30
576.44
2332.69
509.02
442.74
518.14
748.01
934.78
887.06
719.17
497.10
591.64
664.54
647.39
769.99
1084.59
941.29
857.60
816.76
631.04
566.24
548.85
655.74
585.86
752.93
631.70
709.71
2854.83
638.76
541.84
669.78
687.90
798.08
753.78
778.49
721.96
764.98
577.63
614.69
588.24
1222.00
626.01
722.69
635.94
727.45
757.71
877.58
884.65
947.07
785.04
756.19
527.87
573.22
613.00
721.71
749.49
516.16
479.29
447.15
523.71
638.62
691.71
1029.17
1048.14
1020.71
2878.33
587.05
476.34
481.07
510.61
622.57
585.44
735.36
799.67
977.92
665.17
543.61
659.86
1500.41
1113.71
1241.92
1088.51
1172.41
901.24
745.64
544.07
490.58
482.67
566.48
594.25
779.50
511.58
461.91
521.58
647.51
593.07
487.78
556.00
615.13
553.62
673.67
562.77
638.01
674.79
639.80
543.25
709.89
695.84
837.05
788.06
873.94
705.53
786.46
736.78
790.21
2800.59
725.28
605.53
812.44
789.58
739.94
755.98
667.98
540.05
697.43
820.36
996.82
768.57
1283.24
529.61
522.66
507.07
542.63
513.79
618.77
626.45
782.80
838.17
875.32
667.89
584.81
579.95
715.73
602.29
815.47
873.87
846.36
620.57
601.14
532.05
508.44
502.03
535.87
2864.24
506.76
443.27
565.42
519.98
558.27
484.25
586.02
551.48
671.90
573.64
660.93
566.33
1232.22
603.11
722.09
613.08
751.92
658.88
773.66
722.56
799.52
741.05
752.70
676.71
795.69
778.21
897.37
806.74
674.51
524.33
621.32
618.06
758.09
774.40
752.41
693.64
706.65
2759.34
783.21
625.13
689.96
627.22
650.26
659.10
772.86
727.63
786.16
590.19
548.81
574.62
1067.89
503.53
603.40
598.38
757.29
762.70
823.09
621.65
586.39
479.71
634.39
717.38
781.87
853.72
723.74
720.67
652.97
439.04
648.63
958.25
1332.38
1169.76
1021.00
442.96
1032.36
1505.61
435.42
667.48
1022.27
905.12
993.05
822.37
805.08
603.28
695.45
685.60
789.28
731.94
857.06
554.64
596.84
465.76
482.15
585.44
558.83
528.78
598.66
555.05
685.70
645.45
2711.62
644.25
630.81
606.38
713.01
716.48
777.31
788.24
823.08
708.94
939.78
937.18
950.48
1408.19
754.50
667.44
583.50
622.30
995.00
802.63
562.49
677.59
855.28
776.30
837.74
694.76
841.97
704.38
764.03
736.41
781.31
732.58
790.96
675.73
541.64
461.84
483.02
494.36
2790.50
509.71
658.04
654.69
717.94
576.71
666.22
676.09
756.06
628.99
779.88
723.91
789.56
1287.68
687.55
541.76
577.20
479.99
577.62
485.21
600.27
556.00
685.22
631.45
701.87
634.90
818.62
651.66
881.79
880.97
886.00
671.39
691.40
621.12
779.80
733.27
794.23
744.82
2819.80
738.72
689.89
603.83
638.74
531.56
548.13
502.17
492.30
484.98
489.39
487.71
583.74
1194.31
659.07
713.25
862.32
814.35
936.12
745.04
750.40
577.08
619.09
554.06
575.23
556.33
739.13
677.85
809.70
721.27
730.44
633.31
673.05
623.73
592.00
534.79
599.83
597.21
2694.99
733.65
913.98
755.62
891.72
549.17
473.40
415.53
475.02
710.76
827.81
867.90
1010.06
1517.74
791.88
590.17
762.76
850.83
899.49
719.27
671.61
537.24
601.79
443.03
467.17
401.65
622.30
511.86
617.85
632.48
739.50
602.13
739.50
652.69
759.37
721.05
796.24
758.35
2788.93
566.21
551.98
576.71
807.24
913.70
1125.18
848.54
655.76
500.90
584.36
578.40
768.85
907.45
708.08
659.06
780.38
790.09
782.59
570.89
597.96
443.88
556.05
485.82
455.61
467.36
730.73
825.19
594.56
503.91
651.10
729.14
702.60
746.51
814.67
738.17
834.97
666.82
2673.58
804.05
781.38
752.39
819.83
672.11
678.50
446.93
504.77
504.21
660.97
600.25
595.76
1096.19
613.07
673.88
775.91
725.91
838.91
853.50
929.69
831.81
980.34
961.84
842.14
614.45
679.61
458.48
538.37
488.08
614.34
561.86
691.25
582.22
709.47
673.97
803.58
661.57
2646.16
605.06
750.90
663.49
680.63
593.36
637.90
556.68
737.78
686.45
816.39
653.49
740.10
1198.69
528.83
497.71
507.68
499.25
633.32
509.17
560.55
635.33
814.99
674.97
768.57
718.23
985.17
819.88
871.11
632.70
501.06
580.46
514.78
498.82
744.84
726.55
767.61
741.76
2698.51
794.17
856.86
905.37
990.95
819.83
796.36
658.61
650.67
462.95
497.05
427.75
562.12
1213.53
691.96
603.23
718.37
640.92
568.46
477.76
429.37
509.07
747.69
874.60
821.59
659.26
886.36
784.27
820.80
669.86
707.31
532.40
587.88
534.00
522.37
434.24
659.26
695.61
2668.22
793.97
847.59
576.52
550.19
573.96
761.94
649.53
491.28
550.53
514.65
791.16
1094.22
1488.85
691.39
530.40
733.91
523.54
718.97
728.55
744.86
414.76
616.23
720.69
503.32
2463.95
801.79
549.75
462.64
498.56
449.51
628.46
1006.53
1026.55
1243.69
1119.49
1000.07
703.39
614.24
527.70
553.11
523.34
574.03
576.19
725.07
670.45
711.72
612.31
750.48
723.95
2490.27
692.57
523.87
615.00
545.60
458.42
517.30
418.57
651.52
667.46
594.41
603.10
716.10
1017.50
961.48
823.43
871.97
775.80
857.17
842.56
1066.03
982.46
1012.77
827.91
780.21
2498.26
448.17
436.56
427.42
449.86
497.84
438.11
448.97
390.84
599.75
595.70
697.72
699.94
1468.24
786.48
797.90
736.66
732.36
680.34
754.76
573.04
706.23
657.09
685.73
752.10
1011.22
1052.01
1036.32
817.47
848.20
664.32
609.85
536.00
619.03
576.68
640.36
520.12
544.80
1870.08
542.30
422.61
440.10
607.01
692.57
612.80
764.70
600.70
701.64
642.60
675.01
570.61
760.79
616.19
602.11
524.27
666.03
643.46
779.50
668.42
705.86
649.51
645.13
538.18
664.45
711.71
807.36
880.16
1282.11
995.72
788.76
473.38
432.83
681.86
532.90
374.18
607.14
1876.83
426.48
474.21
456.26
642.52
729.75
729.31
831.14
678.31
845.05
623.60
740.16
579.97
968.59
769.91
779.21
748.04
887.83
871.94
984.64
752.41
471.88
744.20
605.27
505.52
944.97
1389.53
1683.80
1722.79
1444.05
855.77
543.59
1086.93
914.56
516.53
474.43
331.41
2460.43
637.16
654.34
683.08
791.31
660.89
689.53
695.33
856.94
808.86
922.55
773.95
780.03
1268.22
610.32
567.62
474.36
422.92
530.36
415.96
551.72
491.47
536.67
540.59
632.10
547.94
731.74
665.07
769.57
642.40
750.74
690.77
689.31
588.37
666.56
606.27
615.00
684.63
2564.30
900.45
1066.45
858.84
708.02
594.38
642.77
503.86
603.88
514.63
525.96
569.54
581.13
1085.16
431.47
462.98
734.04
686.26
662.67
523.04
535.69
477.11
626.06
483.56
599.92
618.28
912.76
716.86
714.16
708.71
684.87
650.59
796.78
801.50
842.24
613.67
657.87
535.82
2345.83
598.03
578.55
515.90
576.50
590.61
559.86
519.49
466.55
464.12
581.85
565.18
693.90
1425.40
796.43
706.86
716.70
622.94
685.93
591.18
691.56
567.51
803.95
755.98
800.61
638.01
625.83
537.36
729.07
719.52
701.41
594.91
730.13
750.53
836.78
795.72
882.50
829.74
2548.13
677.31
553.57
420.71
568.21
373.59
638.04
546.56
705.45
648.34
589.02
378.93
451.97
1095.13
451.42
526.43
656.59
642.80
658.15
670.60
809.80
715.32
926.19
884.16
838.79
410.42
481.88
367.87
527.86
597.12
686.76
773.81
789.39
766.79
801.90
606.46
648.90
627.28
2313.54
588.64
630.76
861.62
1236.28
1217.27
1209.22
824.92
1018.00
651.98
466.52
726.44
3519.64
1469.76
1058.53
413.45
634.64
910.63
997.78
971.81
940.86
842.61
714.58
733.08
804.06
897.30
769.40
601.92
563.94
585.10
719.05
591.73
724.70
564.13
742.75
783.34
803.46
663.90
808.05
514.63
485.24
422.97
568.33
641.54
743.21
643.31
577.42
500.30
533.84
481.71
2301.34
589.69
765.26
705.15
528.43
407.40
480.03
544.40
734.25
758.51
968.61
1067.66
992.92
1518.12
774.81
642.13
656.72
587.41
565.27
610.44
673.64
483.44
495.73
399.37
384.47
2046.86
453.62
422.51
472.75
593.10
635.96
537.28
668.30
545.31
568.94
504.32
645.49
525.30
1300.99
669.90
785.19
723.83
954.02
791.91
873.95
802.49
788.40
551.85
595.79
436.82
415.83
628.13
794.65
844.18
851.36
799.55
802.45
665.74
670.97
360.00
398.74
510.89
697.61
2137.69
1080.42
929.85
882.59
644.24
606.09
582.59
718.83
594.81
668.88
524.80
644.05
569.40
1330.28
584.00
700.46
625.23
744.60
648.46
709.91
554.48
656.97
652.36
732.56
756.88
969.96
1001.54
849.80
551.17
435.17
420.23
444.18
519.32
810.85
720.32
588.83
521.14
425.62
2010.80
730.30
725.62
823.99
716.03
682.58
556.29
720.29
589.92
761.06
801.33
913.83
808.28
1496.25
788.47
513.11
409.62
619.75
799.35
925.40
855.20
777.23
577.76
389.73
474.46
905.83
1149.57
1222.19
987.94
678.60
543.25
495.37
639.58
711.92
727.41
713.03
377.01
460.07
1153.83
405.29
363.35
469.59
445.18
406.81
498.82
544.40
563.00
742.92
615.57
624.94
521.59
726.55
622.87
804.46
778.07
833.95
675.31
701.89
605.91
718.41
598.95
690.35
592.38
2138.35
770.68
871.79
719.06
776.61
736.96
719.16
506.68
614.27
470.06
724.10
636.59
815.01
1330.88
843.33
690.31
760.72
694.91
795.73
485.74
393.11
408.86
476.07
435.39
587.43
455.29
771.79
760.83
922.93
838.47
861.47
561.45
574.81
399.52
463.42
472.19
478.56
484.08
3970.12
690.31
935.16
682.16
738.18
635.13
714.59
602.53
601.52
504.78
586.88
583.27
677.73
1364.22
777.44
688.46
839.46
811.90
967.95
809.37
889.72
787.98
633.70
659.63
644.59
697.68
955.98
842.86
858.06
574.44
379.87
570.71
1021.90
1053.08
509.61
466.43
549.62
515.73
4064.64
643.86
712.81
679.13
885.83
693.65
665.51
624.32
739.87
552.95
615.63
620.49
790.85
1481.69
918.90
766.61
974.31
697.36
717.19
602.36
775.54
616.74
534.18
458.75
597.40
763.79
921.59
766.10
608.73
436.13
569.14
594.81
762.03
684.77
647.49
481.15
465.02
570.21
2032.74
776.19
854.07
636.23
607.15
549.48
547.43
412.08
495.71
528.04
816.97
701.54
783.61
1393.47
815.75
711.11
871.04
851.86
749.10
550.17
608.66
598.00
710.34
723.26
635.24
399.51
575.85
559.84
645.81
551.48
672.55
684.19
738.97
638.60
712.72
689.02
775.71
708.53
3983.23
600.64
445.03
488.18
590.26
418.87
540.67
620.04
798.22
723.21
608.61
615.22
606.19
1274.21
810.08
745.80
806.62
769.05
839.05
716.36
719.97
611.69
632.22
544.57
554.48
530.30
703.04
613.98
721.92
524.95
729.91
606.63
789.24
622.64
583.06
473.91
693.91
693.52
3824.87
773.82
769.81
582.21
628.60
521.38
669.10
582.13
649.42
561.89
622.00
554.96
550.98
1146.98
501.84
466.69
636.96
733.47
1091.44
1094.90
1057.15
519.34
531.87
605.51
863.25
1355.04
395.72
571.26
444.97
512.77
720.84
715.13
782.55
765.51
770.80
612.09
541.07
407.22
528.23
408.68
438.85
421.58
481.66
670.24
928.79
925.01
1036.87
896.19
988.20
704.99
4054.48
644.98
676.90
584.98
571.42
465.89
478.03
436.03
484.06
546.32
647.68
726.46
760.47
1441.26
920.70
822.14
885.47
652.45
596.16
450.68
444.46
343.09
397.27
524.46
601.05
590.69
1061.69
971.05
1160.48
852.61
507.84
361.20
547.93
751.95
766.87
413.04
433.80
392.09
2560.22
639.63
721.91
629.68
725.35
636.40
677.42
504.36
606.55
511.25
629.74
493.75
622.28
696.63
766.69
700.70
808.95
859.91
936.62
774.86
974.04
845.29
632.32
420.01
411.96
646.28
861.50
682.30
670.33
515.23
539.22
428.75
510.03
455.73
613.06
679.94
759.50
624.46
4218.25
508.08
518.95
615.49
732.23
725.56
784.15
839.04
937.87
881.64
774.33
439.14
624.27
1293.33
973.99
912.39
1025.56
957.58
661.83
937.92
1444.15
1022.92
615.37
802.46
989.20
2152.25
854.83
599.93
554.67
495.68
697.03
583.77
651.51
579.37
630.35
601.78
828.85
766.29
1050.67
768.10
741.75
522.99
512.28
443.66
497.08
501.63
515.51
447.03
717.53
647.36
4082.55
624.20
798.66
676.91
667.21
636.54
666.08
674.58
636.43
587.30
695.66
730.92
750.01
1387.30
746.75
549.85
708.36
717.07
763.13
753.93
797.28
520.46
500.83
536.34
491.80
572.45
930.69
679.80
658.85
407.64
586.53
511.13
691.83
607.16
658.66
500.83
705.18
859.02
3823.04
1369.00
1461.94
1000.15
894.49
423.90
492.33
398.37
396.80
460.06
504.91
440.58
527.47
506.93
524.27
412.24
474.92
523.76
610.03
649.97
697.70
673.85
616.19
473.01
402.30
1387.35
876.18
931.87
994.99
799.31
828.75
714.77
744.25
535.30
725.94
581.29
617.77
483.98
1084.05
509.13
614.70
493.60
674.73
545.69
810.27
726.83
785.02
761.51
948.17
970.10
1018.32
896.74
809.28
529.24
526.38
507.71
518.68
461.96
514.90
432.25
626.28
679.52
775.25
1362.77
822.56
763.38
627.14
568.43
641.16
475.77
546.30
501.01
637.87
651.83
703.70
508.66
976.05
601.79
532.51
424.08
523.78
533.94
564.86
650.50
783.53
720.34
969.99
933.59
1000.04
1200.86
1001.04
895.43
691.38
364.87
467.30
468.66
474.73
591.88
661.31
633.80
763.50
1408.95
847.40
715.22
697.99
661.34
645.81
636.84
702.53
725.89
1045.06
1049.33
1005.06
540.68
1070.09
828.95
421.91
713.10
851.08
569.13
739.42
977.53
1060.85
862.69
845.27
664.93
4004.89
650.89
600.26
533.66
537.18
360.97
456.26
379.20
482.12
465.00
672.20
718.72
915.84
1434.29
621.85
473.34
428.80
580.13
706.39
552.57
676.51
584.30
673.71
577.30
625.42
404.75
635.52
774.73
966.45
877.14
945.18
588.79
498.80
466.26
784.09
804.77
816.89
590.21
3923.40
505.13
447.62
539.40
618.21
505.23
519.79
533.37
572.34
561.51
778.67
711.81
862.37
1476.98
898.01
581.55
479.66
396.41
562.14
657.77
707.48
725.62
870.26
802.12
846.37
714.10
740.59
657.02
685.53
659.42
696.14
622.66
663.88
566.32
731.83
693.74
744.48
547.71
3959.85
569.92
630.87
506.98
445.83
476.53
469.68
509.83
607.76
685.31
787.19
742.04
733.13
1382.07
560.83
501.82
569.06
506.12
730.75
733.35
732.75
610.78
697.92
657.18
776.06
681.51
942.92
758.11
795.33
582.17
414.38
541.81
469.75
419.39
691.40
515.10
638.74
625.48
3864.81
663.84
750.58
699.78
770.29
646.64
694.39
547.45
583.16
537.14
652.26
674.61
642.08
1357.29
574.67
548.55
643.54
583.58
685.71
819.82
939.76
814.82
716.88
595.39
655.84
578.54
732.15
590.77
546.23
445.07
565.25
707.73
1053.77
928.01
1029.80
885.58
875.72
506.31
4201.44
846.52
436.39
534.10
701.00
515.27
565.16
447.39
737.44
736.38
779.92
619.85
738.24
1510.68
817.10
642.10
625.35
670.89
744.89
638.48
734.94
489.95
493.18
413.06
581.23
661.08
908.00
851.81
952.41
728.64
761.26
641.06
591.64
563.01
583.16
447.43
469.87
442.23
3886.69
583.33
668.99
620.47
783.46
718.07
762.36
584.65
578.01
490.42
595.76
384.67
499.43
1220.60
573.21
516.34
646.12
591.14
723.37
792.12
874.43
750.57
712.09
601.36
679.87
646.98
918.87
889.27
1139.73
1160.85
1183.17
641.47
744.11
1287.96
619.99
488.67
762.19
772.31
999.49
804.62
795.11
759.03
895.09
803.02
873.10
541.82
521.31
468.28
377.74
456.65
3637.67
616.96
761.93
714.35
783.71
605.16
590.27
483.35
571.02
501.32
559.21
488.47
570.28
1487.33
677.80
667.54
666.52
637.72
923.71
914.05
1047.36
896.11
747.99
597.38
517.32
3659.48
588.82
463.33
606.46
477.53
533.35
561.91
474.42
622.54
710.70
582.99
602.62
551.15
1119.76
466.13
595.30
558.74
827.28
767.31
788.81
678.35
720.62
636.41
735.57
496.24
466.77
617.68
736.17
654.29
720.59
665.71
740.39
577.13
609.85
531.52
629.60
601.27
671.43
3583.76
746.83
759.45
854.82
802.87
832.43
724.93
723.92
574.84
673.87
557.11
556.78
678.78
1530.11
1104.27
810.46
460.58
552.73
575.48
553.24
471.44
557.93
547.01
614.65
654.34
3788.83
586.82
463.47
521.15
423.34
410.11
660.15
669.49
838.17
481.91
448.27
408.75
747.60
1499.38
1106.86
809.48
747.41
628.93
778.35
746.68
842.38
544.54
687.52
537.84
667.53
3491.49
715.71
524.04
539.44
491.53
563.97
530.90
574.76
513.92
448.31
456.27
483.86
440.92
1237.50
929.90
953.04
540.67
468.75
712.05
467.83
594.74
899.69
935.54
971.75
740.83
727.14
783.88
822.81
691.21
698.47
719.78
722.88
719.27
718.56
626.49
687.35
562.12
676.42
3586.83
620.93
590.03
758.33
654.68
640.92
483.18
648.34
763.38
783.46
623.06
740.85
586.38
1201.20
614.71
816.39
678.12
854.21
833.19
928.06
716.20
489.48
509.28
749.04
839.48
544.41
473.74
518.12
495.47
567.30
554.99
631.96
481.47
598.75
499.96
725.32
683.07
711.59
3493.20
814.28
673.16
705.26
612.94
676.32
761.54
1040.81
949.82
1039.10
734.94
677.38
483.07
648.16
492.71
576.12
469.21
683.32
706.95
716.93
692.26
749.64
630.65
657.52
610.07
3522.60
670.72
807.18
757.76
684.58
478.84
495.29
441.93
545.83
541.70
649.84
492.67
490.57
1297.78
605.42
471.01
576.83
610.63
834.88
679.03
777.97
699.61
803.49
749.33
747.18
677.37
897.81
847.26
862.37
607.01
458.49
454.88
488.45
417.33
553.70
452.83
643.00
684.34
3573.49
832.49
890.92
558.96
636.09
496.80
569.81
417.00
609.76
688.63
672.07
605.39
805.00
1253.73
920.84
750.94
863.00
836.61
973.08
792.60
589.48
653.75
776.15
486.77
741.17
823.07
1083.71
712.45
665.62
474.94
601.80
529.37
677.36
525.07
618.13
593.56
847.56
749.85
3547.09
582.98
657.31
495.47
603.40
471.82
627.56
572.79
492.65
665.14
672.69
440.02
623.34
1322.02
1004.84
973.43
1122.39
993.28
1006.22
618.69
644.07
517.28
526.74
511.73
640.74
3509.41
960.39
883.84
954.03
705.93
735.83
604.76
679.86
607.12
608.02
460.32
548.44
459.05
1142.69
577.09
532.00
481.68
454.38
462.31
680.28
730.33
798.57
743.63
759.80
588.60
523.82
662.98
647.40
696.08
857.79
697.28
698.72
509.67
566.49
511.86
609.08
583.21
649.95
3479.61
580.39
498.02
619.24
464.71
505.35
644.01
728.76
647.90
721.55
760.36
997.12
877.02
1508.55
733.93
602.24
452.69
422.87
444.81
481.13
528.05
729.89
508.78
601.93
499.08
644.96
821.22
895.13
692.06
674.58
549.08
646.50
503.47
533.65
520.09
534.01
562.26
624.90
3390.03
718.42
613.06
748.02
671.85
717.67
554.79
568.84
531.75
616.71
738.04
1068.26
1142.34
1613.40
844.05
505.20
806.78
579.52
349.25
614.91
670.15
665.53
666.62
665.27
641.88
3470.15
821.68
828.86
557.18
522.99
431.94
546.65
537.24
714.58
601.62
686.90
722.88
835.90
1250.37
843.45
650.51
544.62
506.29
540.91
570.72
641.22
604.25
707.95
625.47
735.34
485.47
611.60
454.25
775.70
889.33
1063.47
806.63
686.53
450.59
530.83
426.03
481.28
486.71
2751.81
510.49
714.91
792.54
852.16
672.62
580.22
475.42
567.14
428.82
651.82
775.62
941.41
1147.87
992.19
885.74
929.27
918.08
1126.32
910.59
791.00
554.64
621.30
420.94
462.36
2137.06
491.96
483.57
543.82
513.67
629.71
552.61
577.80
585.21
679.71
539.48
601.87
476.46
693.84
470.60
897.47
936.30
1120.65
778.10
587.81
438.95
414.16
391.98
535.28
541.25
3493.38
676.49
694.76
579.38
611.28
573.90
778.98
608.13
676.86
587.01
737.91
583.94
719.31
1274.09
799.74
660.48
697.13
461.72
531.06
510.45
584.17
590.55
669.94
676.52
766.59
628.95
834.06
627.25
666.33
596.59
826.92
919.51
1298.54
963.96
586.11
1089.94
1099.40
609.82
904.06
570.16
768.50
758.48
947.65
849.91
988.10
784.58
551.54
583.51
768.60
611.49
684.99
667.93
574.92
444.88
503.83
444.24
539.11
530.54
553.18
463.93
631.84
541.84
624.78
3306.45
774.95
674.84
699.85
591.32
675.09
521.24
598.21
636.60
695.66
581.39
676.70
686.01
1382.51
711.39
762.05
520.08
694.29
745.31
873.11
748.66
664.17
478.72
513.34
561.12
661.00
677.67
711.18
682.69
838.04
719.64
834.90
795.75
865.86
688.59
654.61
563.76
538.09
3348.27
502.76
458.87
575.68
628.33
833.61
613.51
596.84
498.94
584.24
625.80
490.88
623.95
1490.72
817.69
806.02
697.97
854.88
808.74
986.29
902.21
1067.57
827.63
795.52
558.74
419.49
536.90
504.67
544.71
729.56
604.09
654.58
717.96
727.68
491.46
521.75
462.20
633.48
3263.42
712.72
708.20
724.85
693.89
669.94
469.29
566.20
558.93
935.38
849.08
771.73
580.73
1131.28
614.69
720.02
918.41
1225.07
929.60
599.41
1030.43
1082.18
690.88
367.99
471.20
2806.18
489.43
752.76
912.26
1026.96
758.45
761.44
576.52
639.73
609.40
612.10
408.44
474.16
740.34
652.13
477.98
636.42
645.50
805.63
732.27
806.31
625.83
815.77
512.33
555.13
542.84
849.93
768.94
853.58
755.30
766.87
577.94
666.08
411.04
533.62
492.21
576.74
584.24
3482.94
667.27
772.39
695.60
991.69
831.81
992.92
702.16
723.76
446.27
513.02
495.03
563.12
1180.96
746.96
662.24
773.71
700.48
760.91
616.56
543.97
388.21
498.40
442.09
563.78
475.96
663.67
684.52
754.97
632.23
532.08
397.65
575.17
519.70
856.07
709.52
775.92
648.07
3327.39
737.62
986.97
1015.24
891.85
689.84
756.20
557.72
629.33
454.92
492.19
478.93
509.05
1237.48
706.49
580.06
683.93
507.43
577.42
592.99
654.15
660.71
775.01
672.48
679.68
421.62
659.10
548.49
679.33
657.06
668.58
644.42
755.88
668.20
890.75
789.17
778.72
681.15
3308.27
508.66
507.80
498.55
593.63
508.94
740.20
751.10
981.60
754.41
784.02
590.57
677.92
1105.32
550.52
494.45
541.27
457.33
528.70
883.39
1299.87
1139.42
947.72
516.08
531.39
2203.94
879.34
810.90
868.70
604.54
533.97
485.40
550.24
407.59
590.60
531.10
748.89
592.72
969.47
636.83
565.70
425.04
674.95
646.83
764.94
714.17
844.03
727.49
803.44
667.67
640.57
727.11
640.70
595.88
601.00
522.87
582.49
563.77
624.43
531.81
628.40
587.70
741.32
3108.21
680.04
449.57
571.93
591.58
734.79
684.85
921.19
716.80
806.82
520.18
549.10
470.92
1060.30
553.70
608.30
702.49
824.86
715.19
713.59
709.96
786.02
731.50
890.31
714.12
684.44
559.26
489.16
484.07
492.25
479.68
583.15
590.73
678.68
648.85
677.97
637.83
678.31
3117.89
598.23
516.31
612.49
456.75
672.31
683.68
806.64
749.01
785.73
597.55
601.84
530.97
1338.19
657.22
752.49
735.53
821.27
637.94
865.19
915.19
1020.77
743.62
645.09
486.05
535.64
595.97
567.21
548.19
755.90
765.00
778.66
740.12
783.45
739.02
805.31
586.49
643.83
3082.09
511.67
466.07
547.37
452.59
577.55
561.15
667.65
628.22
707.62
644.77
723.83
646.07
1246.85
530.23
630.66
737.20
845.35
733.65
655.82
476.45
532.32
428.22
653.63
719.93
805.68
813.58
714.93
685.60
688.72
621.75
723.74
629.83
724.27
710.07
966.18
913.30
917.61
3105.14
581.39
516.73
561.62
601.30
806.45
831.82
1058.70
1049.90
1107.85
896.52
1100.32
748.96
637.33
710.69
940.14
744.79
457.39
644.63
736.15
621.02
759.64
690.55
792.27
774.68
3172.69
769.42
782.63
605.06
735.35
649.97
820.65
683.56
748.54
603.24
584.95
561.49
530.79
1177.67
594.62
521.44
526.18
524.25
587.28
505.16
550.48
531.97
535.60
535.30
699.06
616.22
821.18
700.94
793.76
641.43
746.33
697.70
643.74
569.43
674.06
592.90
622.53
662.00
3164.63
879.39
987.70
707.92
728.22
496.13
473.47
478.49
708.59
594.91
704.12
753.56
885.18
1523.18
1085.57
868.34
726.92
577.28
572.92
521.04
559.91
484.02
544.81
519.48
746.56
3103.82
765.25
558.70
581.39
568.64
863.84
806.17
955.77
820.84
797.74
650.61
515.40
1123.63
1733.03
703.36
530.75
474.94
641.36
491.94
637.33
534.50
781.90
618.53
824.57
776.89
3140.06
778.81
772.84
638.84
653.81
598.15
699.88
752.28
927.61
846.13
822.36
496.91
488.43
1025.32
603.72
537.62
780.91
835.32
966.45
829.31
657.80
535.86
649.71
523.57
605.66
598.54
1009.08
683.28
906.89
902.37
881.75
622.57
658.76
578.00
629.19
616.53
622.82
618.14
630.85
713.95
716.35
591.43
693.32
560.56
597.21
617.91
833.44
759.92
950.64
740.63
543.97
3166.25
523.42
641.87
962.62
997.31
1420.04
1316.79
1256.64
937.93
635.61
789.23
980.04
2808.95
750.89
471.31
529.14
592.92
715.22
636.11
566.85
588.03
593.85
657.09
731.01
683.27
1081.14
685.15
751.19
578.41
589.39
503.41
623.62
576.40
826.80
748.63
825.02
627.46
3039.68
564.61
692.69
547.69
708.02
617.36
721.16
650.08
711.20
549.33
681.93
499.80
619.49
1030.65
495.89
509.71
794.96
788.95
845.43
733.75
763.44
544.93
642.26
547.54
586.54
597.71
825.73
632.94
689.19
706.52
847.83
695.43
737.05
726.77
778.74
803.34
743.44
514.45
541.84
489.00
492.76
584.84
786.13
796.25
1132.84
882.69
990.78
861.63
890.17
687.92
647.27
2230.39
557.94
446.11
624.71
598.83
652.05
595.41
666.80
516.88
580.54
482.08
610.39
543.49
966.72
626.95
698.61
615.20
789.36
707.08
792.98
670.12
806.46
740.60
817.08
741.86
827.18
703.00
583.87
428.01
555.11
523.19
666.79
531.07
577.78
492.07
854.65
904.97
1154.66
3036.90
846.20
477.43
579.01
553.88
525.63
553.93
660.02
523.32
641.05
592.38
611.99
569.05
997.40
670.34
820.89
737.59
782.77
775.65
839.63
831.78
956.41
845.87
805.17
511.63
618.35
517.40
530.80
646.33
793.74
704.13
824.47
784.96
798.40
746.47
786.14
694.18
765.23
2827.12
695.96
617.21
735.04
637.84
648.08
677.03
658.99
644.07
657.52
613.01
688.26
537.01
1312.93
555.70
661.19
633.85
734.64
564.51
696.53
596.64
678.50
645.41
733.51
656.30
737.25
744.79
704.18
600.50
710.25
573.95
707.00
748.54
860.05
830.39
866.30
683.24
874.49
2853.88
924.09
877.37
841.64
637.16
497.07
773.37
599.98
446.80
597.68
632.33
780.66
738.26
1438.52
604.75
630.85
642.49
827.95
646.80
680.33
550.39
625.60
545.10
557.52
546.68
682.07
712.99
775.56
658.72
692.40
647.89
726.70
632.38
730.56
585.72
623.51
694.87
841.39
2854.43
1022.23
889.24
724.39
533.57
594.81
479.42
640.47
829.50
1208.82
1047.23
1113.72
913.59
1222.03
807.24
717.05
450.13
506.32
652.29
774.93
781.00
705.95
403.91
663.76
718.60
2928.71
472.15
504.31
461.24
696.10
519.60
606.86
582.00
802.03
870.18
837.60
668.32
661.34
884.54
698.53
631.30
711.22
611.07
666.65
725.69
782.51
759.56
896.05
837.55
827.24
595.61
759.78
671.73
941.49
943.52
792.98
533.49
683.35
542.47
535.63
453.26
502.01
491.61
2873.11
486.50
654.62
513.13
771.90
781.63
904.06
620.20
702.81
652.80
704.65
611.92
656.36
1204.98
639.66
551.39
677.21
584.70
690.56
647.18
856.99
813.90
869.75
708.29
973.33
1006.86
1112.48
742.95
517.47
425.95
655.81
623.04
723.66
522.63
632.38
502.25
592.29
537.58
3070.77
631.92
700.31
502.60
631.89
609.93
698.78
542.20
738.11
624.74
732.40
600.68
754.17
985.42
845.22
666.29
642.22
589.95
594.54
572.31
698.80
663.58
770.33
611.17
749.71
613.93
872.18
708.70
723.03
589.41
663.55
643.39
771.84
556.90
690.00
562.55
796.10
745.32
2856.84
712.02
754.83
679.02
766.56
740.00
745.82
643.98
662.18
618.68
604.27
493.64
573.63
1181.73
680.83
509.10
613.76
548.59
627.06
585.29
759.12
676.37
871.45
668.76
676.04
662.89
871.21
641.36
741.06
618.25
663.13
707.05
814.14
743.09
790.92
599.75
610.27
491.06
2873.26
613.83
711.69
582.26
723.32
567.41
737.48
738.63
831.99
721.71
843.28
705.99
684.54
1131.38
582.10
629.27
692.58
752.86
917.21
693.42
884.28
511.90
547.84
511.90
622.74
803.26
948.83
636.33
733.71
699.75
772.01
588.53
786.69
658.72
702.98
579.11
747.79
683.39
2782.20
872.97
894.55
600.63
600.10
585.51
482.07
573.60
826.61
849.66
914.39
571.75
518.59
1128.45
502.79
586.09
733.70
721.86
886.12
740.94
788.74
720.56
931.50
808.53
945.59
723.28
684.61
501.08
454.66
443.49
719.35
654.93
765.93
690.65
765.14
639.48
775.55
787.13
2852.21
777.03
746.21
629.96
838.04
763.58
816.62
723.72
758.52
575.48
547.58
524.06
573.58
1116.56
717.01
651.84
731.55
471.71
566.04
440.82
546.80
362.59
555.36
515.40
567.78
576.97
797.25
515.71
716.36
609.75
900.15
853.41
1101.51
1137.60
867.28
593.61
738.16
489.96
1346.53
605.65
831.12
660.91
658.04
453.02
576.46
533.87
664.13
593.65
565.84
466.76
529.82
659.89
757.69
649.71
786.45
613.58
757.43
637.05
725.29
646.29
812.71
646.92
764.00
2602.57
701.45
502.63
475.92
546.16
531.94
446.50
498.41
542.08
676.41
562.50
688.80
624.41
1355.66
663.51
755.81
698.75
830.40
840.79
1006.35
903.75
1026.22
725.39
738.10
640.85
507.92
557.72
629.58
631.55
767.47
667.72
845.59
648.24
731.25
552.73
754.49
714.90
751.21
2565.35
922.73
790.17
854.42
602.84
474.67
490.47
449.78
523.13
588.05
515.41
675.62
614.89
1431.53
673.75
760.07
558.30
763.77
690.72
817.86
724.32
880.02
894.11
1127.20
910.26
877.46
475.21
496.54
530.25
617.74
642.38
777.69
787.95
893.84
796.73
808.38
736.56
710.80
2314.06
516.00
457.83
579.42
473.35
610.09
552.15
641.44
629.97
737.79
562.61
613.27
510.72
893.27
605.16
581.31
416.35
492.68
475.92
609.93
594.94
682.61
687.04
875.12
737.07
735.53
600.26
580.40
667.65
742.39
655.19
736.04
573.53
683.86
574.81
761.95
574.61
676.69
2400.89
812.04
814.75
867.34
676.62
651.41
618.97
760.33
837.81
894.19
754.70
833.50
655.33
1345.85
710.90
834.72
708.67
742.70
752.89
793.37
730.33
830.55
538.35
597.62
487.86
474.55
574.76
527.64
439.53
495.43
468.37
471.08
427.58
571.37
551.61
614.35
543.88
708.15
2698.02
879.32
828.52
895.07
774.67
845.85
739.26
833.15
704.75
723.45
585.29
659.38
573.45
1494.20
749.85
866.90
823.83
800.98
566.36
518.31
520.28
767.68
734.19
891.03
767.02
844.38
796.70
909.72
919.81
1001.16
661.25
512.36
554.81
519.53
455.68
598.96
562.07
634.58
2499.77
636.31
479.74
649.22
550.36
736.88
828.91
922.36
765.74
968.68
813.18
742.53
478.93
1234.04
620.94
807.81
635.94
687.72
452.72
452.71
413.55
700.28
719.14
823.15
696.00
673.15
477.31
559.49
441.38
724.87
793.83
914.16
961.35
977.43
783.23
645.04
465.88
513.15
2437.40
599.14
622.58
620.62
599.92
814.57
920.25
1077.64
998.55
1022.66
750.30
595.35
417.80
748.69
469.59
584.44
481.08
548.89
465.78
529.42
577.52
960.35
846.28
974.44
798.46
865.49
692.49
656.33
548.68
477.29
450.61
605.31
631.43
867.46
810.82
987.07
704.34
601.44
2524.61
892.21
734.84
654.07
446.41
500.60
495.06
638.19
680.38
853.06
550.13
583.71
559.86
1468.19
673.11
616.94
556.68
662.84
542.70
715.31
634.60
731.39
581.40
709.05
642.12
869.87
992.28
988.73
800.01
856.25
748.91
841.55
713.12
711.46
524.49
513.47
526.41
574.86
2280.62
557.79
640.05
604.25
443.22
522.98
437.50
530.94
499.66
565.55
530.55
606.17
554.00
1451.60
779.74
916.91
780.47
777.06
702.53
933.93
836.41
923.63
744.62
766.20
627.26
663.91
609.11
598.99
852.37
517.20
438.14
600.48
583.89
750.43
626.13
751.39
639.32
749.24
2425.99
1179.77
1121.57
1152.57
885.72
808.03
558.93
649.05
685.89
844.86
737.54
707.68
2358.01
644.02
440.10
505.67
427.50
567.03
492.70
620.29
533.47
719.45
695.76
820.05
749.19
1483.91
773.44
892.26
674.06
688.02
541.45
730.55
542.70
619.91
487.92
485.59
497.88
695.41
661.60
732.84
650.74
712.20
512.82
666.28
431.67
590.01
608.90
690.70
647.03
861.63
2259.89
849.06
726.20
789.87
627.85
815.85
686.26
709.49
540.60
607.71
546.39
612.28
536.08
1302.78
556.09
567.25
369.98
423.65
434.45
705.69
670.74
866.53
645.44
765.94
708.30
814.79
702.48
715.08
735.46
859.38
754.88
897.00
790.74
910.58
792.29
1005.60
776.87
803.62
2269.46
589.46
583.31
467.94
441.57
535.54
603.62
690.89
566.89
664.04
469.69
672.24
621.50
1451.75
744.38
848.44
517.60
521.24
424.40
591.94
623.08
738.99
615.80
727.30
674.27
638.76
544.26
565.01
404.69
487.11
602.60
700.64
624.36
804.55
653.78
762.91
727.24
899.24
2337.20
679.96
670.17
730.65
619.51
649.65
527.61
693.37
579.03
650.39
608.59
811.51
693.40
1473.74
717.16
792.52
635.03
599.49
408.87
481.57
534.72
667.54
628.28
906.39
788.09
831.15
715.73
699.57
635.80
782.03
684.52
831.00
647.93
671.46
553.32
605.60
325.49
466.81
2052.61
559.85
532.12
607.82
604.93
696.92
524.03
711.52
594.79
841.68
689.28
597.47
420.86
1106.24
625.96
1035.34
1029.62
960.54
843.98
1115.62
1334.34
1475.20
845.51
437.91
801.00
1155.57
479.71
592.03
541.86
667.66
528.68
540.35
480.85
511.86
466.18
634.37
587.40
693.36
789.04
1014.78
925.87
955.85
672.83
609.52
497.86
527.63
506.73
574.29
373.60
388.62
2147.62
543.07
627.49
853.13
693.99
704.23
621.36
826.74
727.41
831.03
702.39
683.33
470.27
1285.24
639.42
590.74
486.41
563.55
481.97
567.65
620.07
963.84
947.38
1031.66
674.10
2367.05
409.76
707.90
808.70
782.99
471.34
493.38
508.79
612.43
653.62
828.55
702.52
806.45
1410.98
881.05
721.66
684.23
595.74
728.06
566.38
447.58
405.79
579.77
636.94
772.38
688.78
838.23
383.01
528.61
405.79
603.62
749.00
840.29
774.07
828.10
699.19
598.83
480.41
2241.44
701.86
1057.41
799.86
922.03
743.17
845.05
687.79
723.19
594.92
648.44
432.58
535.87
1314.75
792.05
672.67
774.12
573.38
554.08
462.39
473.66
403.27
487.44
448.91
565.79
503.40
679.86
618.52
590.84
496.28
451.92
536.50
733.69
684.71
688.73
705.09
883.96
745.87
2317.68
744.20
796.85
538.92
621.62
486.91
553.68
650.20
738.03
724.67
797.91
612.02
717.56
1315.41
680.77
504.14
641.25
516.27
622.33
534.41
609.46
515.84
658.39
631.10
630.25
600.38
833.39
715.83
746.14
667.96
826.64
767.22
827.29
726.28
814.05
794.40
812.47
495.28
1973.46
435.16
664.43
718.82
901.31
567.60
629.62
511.98
601.59
568.85
653.29
577.11
818.33
1432.96
976.48
756.76
1043.53
1036.33
926.98
596.04
423.36
889.03
546.39
351.02
483.07
1831.70
781.83
713.52
884.41
775.10
945.06
843.32
974.27
824.45
867.85
634.36
745.74
618.57
1372.37
575.59
600.66
435.00
467.54
419.84
680.19
617.31
581.20
563.75
564.81
470.47
571.74
669.22
715.79
575.38
754.23
611.82
798.86
675.20
803.30
740.49
913.65
708.11
849.90
2046.55
909.14
872.91
1086.01
736.05
877.05
892.00
1209.27
1125.51
1168.59
615.34
507.13
1930.37
478.11
612.06
582.40
574.04
457.46
444.19
480.75
451.59
615.14
447.08
479.95
468.63
785.21
459.07
649.94
590.67
678.52
430.37
526.58
537.49
639.80
620.16
524.64
473.82
680.27
903.55
1057.98
918.42
935.92
771.05
1029.95
956.07
989.49
703.00
715.38
503.25
540.48
1494.21
786.31
687.79
808.50
690.82
816.78
645.81
836.07
752.33
786.46
605.81
497.46
516.77
1310.33
558.73
749.35
622.92
781.13
633.25
688.92
410.20
530.80
470.48
615.62
394.22
417.03
603.52
737.57
676.20
784.74
602.98
729.49
509.43
627.54
508.19
518.21
514.08
666.20
1506.64
711.82
597.56
774.38
613.24
647.76
605.61
695.53
588.01
743.55
646.72
820.38
662.37
1448.26
755.04
858.95
897.64
1136.04
1226.68
1180.76
441.48
1559.49
1447.41
552.31
739.81
1024.50
767.17
581.59
591.71
828.39
854.73
940.43
743.01
749.24
573.00
732.71
914.70
3252.39
1179.20
1143.72
689.42
634.98
391.24
480.23
359.44
413.63
471.51
623.63
566.16
4147.56
653.99
753.91
581.14
693.17
612.77
673.20
643.78
685.25
578.38
657.49
528.78
690.15
1284.32
794.28
813.44
994.53
908.59
1011.84
789.32
698.55
397.58
495.59
505.60
677.78
621.97
795.09
715.30
1031.81
920.28
1054.46
802.76
665.16
543.95
701.71
498.50
409.19
410.42
3992.50
587.37
653.61
620.41
752.06
586.16
727.94
483.09
549.44
359.17
441.42
390.27
589.78
1248.06
751.49
592.29
685.20
650.39
965.50
898.27
1092.42
955.90
856.53
648.90
588.18
1350.43
711.04
637.90
768.02
670.33
647.40
614.24
635.85
616.21
659.49
539.12
651.89
537.20
1429.33
560.43
613.92
532.45
657.30
532.88
756.36
753.85
799.36
613.49
499.05
362.60
640.54
744.13
878.78
732.86
968.40
689.40
865.96
645.58
682.67
655.38
764.72
716.52
747.60
1355.50
772.33
619.36
575.10
568.84
761.03
797.46
816.29
489.19
571.69
724.35
440.15
455.91
1387.37
724.42
804.21
758.43
984.18
796.42
856.35
888.36
914.48
569.24
591.17
656.58
791.98
910.00
908.81
432.64
1005.08
793.36
538.12
716.92
829.86
768.55
723.38
558.26
740.08
1734.75
1122.62
1023.85
994.07
754.76
709.63
610.69
611.01
564.13
573.17
552.61
836.07
689.33
946.32
560.84
555.21
523.58
541.86
466.90
505.48
451.58
660.66
674.53
817.35
656.31
717.51
889.22
854.13
616.24
750.50
586.49
790.79
537.40
614.32
495.26
555.04
423.51
521.78
1390.32
706.64
603.42
685.72
505.10
675.02
662.22
851.74
761.36
726.44
598.38
738.70
617.79
1314.77
483.37
589.40
620.21
805.46
821.67
717.71
574.05
745.74
678.65
844.57
681.56
872.01
731.77
540.96
458.54
594.44
470.72
502.44
437.36
502.09
507.91
496.51
449.84
473.43
1372.55
896.59
825.30
803.22
667.69
808.87
597.84
698.81
588.47
628.96
549.57
775.70
844.38
1599.37
996.40
907.70
380.89
402.62
397.40
604.02
586.52
662.50
551.16
636.05
540.14
709.23
842.17
849.69
595.96
524.66
454.53
608.26
546.32
652.46
647.33
694.78
694.99
760.92
1409.25
714.38
479.83
769.43
846.70
1032.47
819.96
932.72
727.05
662.16
499.40
635.85
600.63
1166.82
614.41
750.22
702.72
776.94
572.49
605.74
459.12
497.80
414.21
527.16
479.47
743.68
795.48
609.56
434.89
429.32
396.11
798.88
839.73
614.78
503.72
773.69
829.25
898.43
1426.73
663.16
637.27
819.52
737.73
886.61
782.42
818.19
493.80
493.43
494.59
642.55
597.71
1404.20
632.80
754.79
637.12
871.82
802.54
766.75
619.73
469.83
433.16
514.57
569.72
695.78
829.46
831.98
653.00
626.17
534.92
623.66
547.70
573.87
465.77
656.05
620.61
855.75
1337.37
857.42
639.90
703.31
507.05
589.85
555.90
630.33
492.85
739.13
722.04
862.33
739.07
1374.23
778.50
731.62
515.23
576.25
523.24
623.18
618.47
767.92
792.32
1088.16
733.77
2036.33
926.58
1018.76
672.12
618.99
417.68
584.93
738.59
596.77
538.66
417.41
439.62
576.40
1351.31
789.70
581.51
610.12
497.33
564.07
587.68
782.62
715.88
898.47
819.92
879.17
822.48
1160.82
949.64
895.41
403.85
509.77
330.74
518.40
509.26
688.00
690.08
757.38
685.33
3277.57
730.77
714.66
495.00
670.44
542.68
872.45
815.95
1027.65
833.85
862.61
666.58
596.13
775.98
647.92
547.83
683.22
570.27
737.62
588.90
586.03
408.23
474.86
450.13
665.94
487.52
728.67
599.75
767.08
526.54
541.24
428.04
644.38
677.99
794.21
697.26
866.74
706.90
3864.77
732.88
730.02
628.59
691.00
592.07
721.37
576.19
672.76
596.99
816.87
834.63
890.27
1208.10
565.90
399.62
551.74
691.12
900.88
439.77
644.48
530.22
516.95
504.49
776.47
729.51
964.81
691.02
848.60
