290.58
365.32
272.80
314.72
324.41
353.75
670.94
700.60
591.24
579.78
491.70
610.88
581.45
1528.77
374.41
392.34
392.58
535.00
491.28
654.81
672.75
719.40
512.37
267.78
354.78
294.33
662.47
723.16
793.40
789.41
671.95
623.88
353.21
400.38
342.22
359.78
393.57
306.86
298.84
419.55
429.12
370.76
351.46
336.28
371.03
442.43
536.45
552.84
508.69
505.12
499.53
1881.62
535.04
454.57
405.40
424.79
442.02
499.82
351.94
535.26
480.31
513.57
525.20
554.04
1119.66
711.57
641.93
458.66
317.10
350.55
376.76
454.81
471.39
586.52
562.00
524.16
509.78
670.06
577.73
637.09
585.35
609.25
370.69
328.31
321.35
323.64
364.08
543.92
626.93
1900.36
641.08
588.05
397.32
316.40
355.22
514.82
772.24
617.45
281.56
371.00
556.77
682.27
1140.05
789.27
630.06
470.54
523.23
708.39
910.06
986.15
490.63
434.88
881.73
480.04
963.98
573.54
546.05
433.35
533.03
491.27
377.98
359.12
409.73
350.34
358.76
362.35
687.66
1019.75
739.56
398.11
250.29
267.08
453.86
481.35
645.10
830.99
784.93
523.87
593.83
1455.73
298.36
384.15
332.86
458.87
318.11
330.28
349.75
439.60
396.17
543.10
742.94
967.15
1096.51
707.52
387.20
418.68
540.75
393.44
363.46
659.03
785.86
777.46
617.70
505.20
1506.29
617.86
696.78
745.43
850.36
577.07
421.25
409.17
302.82
424.85
621.57
384.49
339.96
392.72
608.37
490.29
310.72
356.20
375.03
429.84
432.45
434.27
448.70
424.18
417.47
1655.50
442.28
480.57
720.44
1133.81
1170.94
1061.07
976.89
627.24
483.75
473.90
352.67
1475.79
547.17
583.14
553.55
461.86
294.60
334.39
432.10
450.37
339.30
367.20
413.36
396.51
564.41
417.07
325.36
363.73
402.03
489.18
533.04
634.09
637.77
619.42
543.17
442.00
329.38
590.58
410.66
619.97
546.29
432.53
362.53
420.06
389.80
472.16
465.95
576.99
580.71
1614.13
426.02
411.74
522.28
702.33
847.01
743.59
573.86
443.95
338.87
389.12
356.44
304.76
491.35
328.82
374.55
366.76
353.58
438.39
385.14
438.03
422.20
394.31
489.49
444.59
455.64
530.30
505.81
540.16
559.09
573.16
653.76
593.41
472.21
296.68
304.03
411.47
367.60
1600.09
637.87
568.71
450.32
483.37
395.38
553.94
543.75
581.74
503.83
442.85
324.17
454.75
954.24
574.85
527.69
392.54
341.72
396.29
468.15
527.07
410.82
312.91
308.36
385.94
471.61
744.64
744.45
1003.97
1133.24
1128.48
785.08
307.59
803.72
582.69
354.05
414.86
463.32
650.99
383.78
378.43
450.18
470.50
590.92
532.09
466.19
447.22
363.90
322.18
371.05
3077.59
431.81
355.81
338.45
367.31
486.02
483.96
599.08
564.31
697.38
572.36
369.24
342.56
825.55
308.24
391.21
408.14
438.35
463.14
359.39
386.56
332.50
438.61
478.68
436.02
433.74
595.66
500.07
573.16
562.53
584.77
503.32
375.26
390.16
492.25
648.10
625.76
563.56
2881.14
523.36
474.07
443.05
488.46
465.79
400.52
382.10
391.07
345.01
358.54
354.80
462.89
918.00
491.14
528.50
351.73
278.20
500.08
593.37
672.99
585.07
459.53
385.25
450.99
484.87
634.04
513.22
601.26
462.78
390.79
422.97
550.14
535.45
509.04
431.11
399.17
409.74
3040.34
448.52
452.61
415.06
550.57
444.56
554.31
436.33
511.78
461.52
437.23
455.39
471.04
966.17
516.06
305.41
500.33
506.67
524.84
496.49
572.08
516.43
682.71
744.57
744.99
733.00
740.58
512.19
410.22
322.48
342.84
262.23
347.61
368.16
403.63
441.62
693.87
643.28
2928.62
385.20
327.91
441.50
542.84
429.18
312.96
474.21
559.71
753.42
960.88
1138.25
1052.62
818.26
422.32
345.39
358.09
362.13
578.40
562.49
401.66
305.95
344.03
393.35
306.36
873.17
460.99
548.08
549.59
554.26
502.28
387.48
321.85
320.45
484.06
694.73
797.58
717.89
848.22
630.68
290.23
295.53
291.58
285.59
312.79
345.24
423.57
456.05
425.06
429.92
1522.13
444.39
525.37
479.46
573.86
538.38
487.63
441.37
465.03
429.69
376.96
431.59
466.57
505.35
417.12
308.36
382.16
341.81
389.04
385.19
550.46
593.18
508.16
491.04
404.75
532.45
523.42
475.31
498.81
335.40
377.14
322.60
577.52
586.16
511.19
418.35
400.50
362.36
3052.73
488.23
442.73
450.32
471.80
427.96
389.71
312.35
311.19
393.08
516.06
478.80
516.80
1021.89
448.83
475.32
525.80
563.93
508.82
343.30
548.25
642.87
597.54
356.37
351.14
415.13
453.99
341.75
373.45
303.13
391.16
451.46
565.18
550.80
490.40
422.47
487.58
414.86
2964.84
574.77
642.04
722.21
739.32
649.55
659.01
628.57
734.62
590.94
512.75
406.35
393.22
946.60
530.54
485.94
618.11
503.55
325.84
396.12
324.36
296.03
381.18
329.47
348.74
352.59
501.91
463.47
433.91
457.84
554.80
361.30
418.79
312.23
471.83
453.78
447.05
388.55
3051.91
389.95
379.28
492.94
610.95
556.96
580.37
571.70
491.68
477.31
399.97
539.23
706.35
1215.95
1097.19
879.16
835.45
493.63
262.22
402.77
556.33
591.93
398.85
328.81
343.51
1084.72
711.12
397.16
453.35
610.57
331.59
496.44
755.61
818.65
733.50
475.71
497.32
1094.76
534.84
459.03
439.02
408.03
546.45
574.05
463.16
456.32
430.70
497.14
463.37
440.56
977.17
385.22
430.01
475.35
401.23
409.48
343.98
394.83
352.04
376.27
421.02
405.60
446.58
592.21
453.88
426.45
549.72
517.73
531.38
465.34
399.90
330.89
454.75
520.92
602.10
1223.10
760.78
747.97
894.15
753.09
549.28
383.00
304.83
289.49
487.83
467.37
606.05
443.32
592.40
429.39
565.42
545.81
537.63
584.88
507.94
406.69
375.47
228.92
281.64
288.01
278.97
492.79
402.81
423.96
420.38
492.71
493.71
478.79
604.65
629.63
401.10
287.35
343.48
1111.73
627.84
687.86
507.52
386.42
368.48
408.98
442.15
440.60
473.51
373.37
433.54
348.42
931.86
362.67
365.51
268.62
521.49
655.25
627.33
420.43
327.26
416.04
405.78
550.28
577.62
702.36
607.22
546.16
504.32
489.66
594.22
609.10
575.52
531.60
579.52
568.44
553.72
1152.34
394.21
353.28
564.80
264.10
359.51
409.83
453.06
428.17
422.34
400.31
516.24
638.11
1081.00
467.26
441.43
436.66
510.73
530.02
519.59
471.48
433.72
541.64
545.50
642.66
631.96
429.11
321.79
367.91
409.14
459.20
424.35
416.22
577.21
544.22
633.59
641.30
578.69
1065.86
567.44
408.74
328.03
353.46
396.10
407.19
371.20
334.56
309.28
361.25
312.44
264.86
892.58
433.15
476.36
573.73
501.05
590.70
553.40
542.21
401.33
350.38
452.84
374.19
458.51
598.02
564.99
470.91
512.04
546.16
571.10
409.97
415.96
424.15
401.29
447.45
397.86
1108.39
583.46
457.32
432.57
480.86
471.68
492.51
476.21
458.77
488.19
469.41
377.41
534.65
1118.86
571.75
552.68
495.88
411.59
375.49
437.64
467.57
471.86
348.62
398.26
529.55
634.10
773.61
587.12
427.71
357.80
357.04
366.88
433.61
503.13
470.86
554.83
442.44
485.92
1045.25
396.64
360.85
433.78
509.49
495.46
465.46
519.04
463.85
526.52
471.54
519.73
467.62
1075.24
526.21
466.96
332.14
356.55
422.65
394.09
537.18
654.65
646.43
610.19
464.33
422.04
377.79
299.99
322.42
424.79
316.26
422.46
490.18
647.27
644.56
320.15
532.28
737.08
1083.87
625.21
726.12
787.45
733.61
609.67
435.70
449.44
431.61
442.60
461.14
465.26
348.96
1001.48
465.31
417.65
333.35
347.07
465.78
337.68
351.67
340.46
501.96
500.97
557.34
531.53
705.41
648.28
713.89
716.55
526.44
447.40
333.34
468.41
510.97
581.83
463.39
452.79
996.11
406.28
388.45
335.41
411.39
392.72
408.57
395.75
364.22
353.46
501.48
474.82
404.85
1009.86
502.09
507.04
620.08
552.49
322.60
355.42
376.19
442.82
509.77
508.07
477.49
467.37
544.43
474.13
440.39
663.18
714.29
859.97
770.32
463.80
300.07
321.17
437.86
470.27
1051.81
478.25
464.02
586.51
515.11
622.49
466.00
521.80
389.76
438.10
392.13
452.56
324.55
392.67
366.44
386.26
383.67
314.22
443.73
537.64
536.11
602.95
551.34
420.69
404.96
2758.31
524.76
485.07
449.50
466.70
440.91
401.58
395.10
423.43
503.17
533.56
512.64
493.26
1141.47
552.18
490.38
411.84
386.91
392.07
389.89
479.03
457.67
414.37
421.00
525.92
496.73
605.20
445.71
521.57
502.39
492.52
441.14
510.55
453.46
442.72
421.63
394.48
444.97
2744.26
464.85
586.10
639.02
644.53
598.23
481.07
433.99
406.01
557.98
618.45
558.28
494.71
889.47
295.95
316.73
341.37
280.87
323.21
423.25
472.80
516.11
537.97
534.53
481.46
464.97
534.38
491.73
509.10
532.43
544.34
403.42
494.89
445.57
474.20
409.95
407.19
392.26
2832.75
397.33
413.70
380.69
454.73
401.89
464.49
434.54
408.79
563.95
580.30
493.70
547.44
1096.80
457.77
340.74
330.31
409.04
442.22
461.15
567.45
536.77
502.79
518.53
488.64
415.77
582.31
585.79
624.37
679.25
708.45
635.53
582.28
462.63
332.34
355.00
345.08
322.92
2934.91
329.26
441.77
397.16
414.44
432.63
389.26
409.57
333.26
435.34
466.62
458.29
440.80
984.62
439.72
419.50
545.30
387.68
422.34
436.69
527.93
472.45
511.28
452.99
519.19
441.02
537.90
547.62
584.94
600.06
511.98
403.03
293.83
365.60
332.46
435.01
379.80
394.91
2785.03
517.44
576.07
490.83
522.45
488.41
544.51
648.55
736.08
626.64
680.51
751.35
906.32
1191.10
545.65
315.50
323.52
321.71
267.11
337.91
400.51
325.88
356.43
342.16
304.49
3021.40
469.72
459.82
539.67
644.16
638.52
575.44
586.21
473.74
515.19
545.20
570.01
476.21
1018.18
361.93
449.83
355.50
464.69
338.24
364.19
399.03
321.72
370.90
320.29
376.74
352.32
503.91
363.33
359.09
377.94
323.85
373.72
303.84
367.46
488.43
500.31
511.81
620.28
2714.58
531.96
354.20
451.36
374.46
358.17
415.82
349.24
349.07
513.36
453.28
522.56
524.32
1083.03
693.48
628.89
536.15
490.67
512.65
376.66
442.99
451.69
385.57
454.15
466.90
421.34
537.28
536.95
544.30
531.88
405.66
466.76
378.15
485.67
493.91
427.95
504.16
540.89
2689.90
530.09
469.42
447.09
413.18
443.13
383.85
383.13
495.52
478.20
509.67
473.19
386.86
1097.21
405.25
417.07
292.55
339.59
357.94
500.37
676.11
795.55
721.06
641.06
525.75
527.32
455.85
391.85
362.72
362.48
330.44
359.18
469.77
405.06
389.62
394.85
409.24
477.28
2786.81
534.60
603.10
779.10
670.25
672.16
444.51
276.69
466.06
327.86
472.95
536.67
460.58
1098.26
527.17
635.12
626.36
748.36
675.72
578.45
472.03
452.79
435.23
408.53
407.99
351.19
391.91
346.14
373.39
374.07
357.46
403.62
344.45
390.71
381.07
425.06
489.80
531.75
2753.60
641.15
580.77
632.64
635.96
734.45
816.66
828.81
685.81
456.98
460.95
582.48
511.35
475.80
362.51
388.99
339.86
293.46
332.81
396.78
378.27
451.32
424.98
361.90
399.01
450.52
630.41
473.41
364.31
353.24
489.02
576.28
613.29
595.66
544.73
500.48
520.26
628.23
2558.89
491.78
389.09
327.51
336.86
431.35
467.29
515.83
428.47
478.03
322.89
311.61
359.90
939.60
411.96
438.24
360.30
352.10
463.33
482.02
512.62
593.74
582.42
589.91
449.23
456.25
480.03
347.06
440.86
558.57
722.03
694.53
512.40
381.58
352.08
390.61
398.66
334.26
2643.33
401.32
534.50
470.20
499.85
437.88
498.38
434.67
479.19
464.28
425.80
402.16
380.48
1130.83
426.56
425.38
521.62
611.12
449.38
459.13
387.29
403.07
421.12
479.26
498.87
475.95
449.49
351.16
368.75
492.70
419.99
479.87
328.45
419.27
401.28
514.20
431.08
488.75
2629.25
554.00
499.63
509.17
395.75
480.18
451.28
470.08
420.91
481.53
376.62
479.17
348.45
1019.76
446.52
467.48
490.67
547.96
518.44
571.43
612.21
408.42
348.29
359.75
361.91
563.61
673.10
699.67
634.46
550.44
565.19
446.76
434.99
466.02
559.69
624.81
504.34
330.63
2825.02
395.86
436.45
533.92
609.39
601.52
680.66
622.91
482.05
301.92
310.94
367.24
473.84
1090.07
589.27
525.03
409.53
362.45
315.37
415.74
473.18
490.67
485.96
438.97
358.34
418.23
508.37
465.23
397.57
428.94
351.87
449.94
372.30
402.38
382.18
396.70
354.14
414.27
2725.58
497.44
455.65
498.36
511.92
616.30
637.54
577.54
487.61
462.22
580.84
608.91
514.16
1026.67
433.99
378.03
437.10
661.40
725.19
551.89
341.10
392.86
399.23
492.75
458.01
321.93
376.84
383.75
400.84
345.91
366.63
331.95
331.02
304.07
311.89
363.15
289.73
309.00
2589.57
439.04
460.87
606.66
524.63
594.06
695.24
753.26
930.45
974.33
902.40
669.45
445.32
398.53
615.85
859.78
673.92
388.04
341.77
447.52
555.04
684.81
478.00
402.51
475.53
1118.28
509.00
438.05
312.14
527.76
296.59
388.10
488.57
526.92
484.85
520.18
594.48
571.06
642.70
430.88
489.73
499.68
462.00
437.72
479.05
473.08
469.15
333.88
410.75
360.27
2604.19
474.78
438.22
540.60
460.68
499.77
518.75
485.50
392.76
382.83
364.54
368.50
444.97
1116.18
515.71
417.71
416.93
412.73
436.36
509.45
593.62
565.21
484.34
491.52
515.49
518.90
580.37
593.43
497.50
593.10
632.33
647.74
416.42
480.07
477.52
421.86
325.84
360.23
2418.06
437.81
396.41
484.51
475.23
547.56
494.88
432.95
336.54
399.48
314.01
377.74
386.09
1109.22
498.05
517.39
573.78
631.83
626.14
533.13
497.50
471.40
367.64
428.16
386.52
441.52
499.36
520.66
419.07
362.22
310.49
358.62
390.31
413.39
448.75
427.70
424.41
389.42
2497.74
394.62
378.12
509.09
422.86
514.60
458.03
468.39
495.77
541.88
503.21
522.81
494.44
1163.74
541.08
583.40
528.72
531.41
529.31
549.78
479.70
391.39
416.15
390.77
434.35
449.07
544.82
442.87
448.97
469.85
474.02
437.49
467.09
398.36
367.06
383.21
359.88
327.90
2452.94
470.29
444.71
411.71
452.15
402.39
464.19
444.86
487.27
506.50
513.26
358.96
348.08
964.35
365.38
447.96
516.73
528.20
528.02
558.64
585.46
492.14
398.40
435.47
595.50
603.70
660.04
541.74
435.59
511.02
381.05
376.28
426.81
497.38
533.30
564.56
530.45
433.41
2477.31
490.55
583.05
707.12
709.74
586.39
373.94
379.79
424.05
506.74
394.96
406.89
377.71
1085.34
629.23
749.37
620.23
539.68
434.93
388.18
382.29
474.48
380.15
363.27
471.93
510.42
582.06
532.40
360.33
414.36
320.19
375.95
380.04
378.78
446.06
443.31
519.42
545.67
2487.66
549.07
493.82
532.74
457.22
478.79
531.46
651.35
643.64
539.45
352.78
352.16
385.95
1138.49
629.00
610.66
516.31
535.05
490.78
437.91
419.69
390.70
389.38
375.65
350.15
453.47
537.42
589.10
535.63
473.20
472.40
540.82
513.72
468.19
495.06
613.30
535.04
598.39
2449.06
629.82
472.02
410.19
414.04
389.94
278.41
386.95
417.12
363.84
407.96
355.29
337.69
1118.60
496.74
473.96
485.15
534.33
470.16
514.95
534.57
539.94
414.92
477.98
464.16
629.09
696.98
722.70
554.99
439.31
368.55
465.52
444.86
440.04
473.03
399.41
436.08
440.37
2490.04
462.57
442.92
403.25
517.41
592.00
694.96
734.36
817.05
945.27
719.58
532.44
357.23
432.32
322.16
613.88
721.59
387.91
348.66
470.64
558.80
606.61
397.69
346.95
326.43
2488.13
443.05
488.21
464.34
533.36
433.40
485.47
509.90
522.39
495.11
485.09
274.54
315.01
765.03
428.91
542.32
637.98
532.97
443.72
464.90
477.20
553.72
401.80
410.54
487.61
461.89
506.06
413.06
374.07
421.73
563.74
678.27
755.46
717.68
559.50
391.92
375.86
336.91
2602.17
357.55
470.22
513.53
577.33
596.82
565.95
493.66
465.38
417.42
378.25
368.27
370.68
810.65
514.65
464.50
498.83
479.33
501.43
527.00
551.58
418.68
440.37
372.65
480.66
411.41
523.92
399.45
461.21
472.39
371.10
353.05
385.76
346.56
451.69
573.43
478.70
542.31
2445.29
458.04
524.23
582.73
560.39
468.00
460.45
516.50
532.95
536.74
613.88
595.45
580.47
952.06
448.72
396.78
376.29
398.28
471.97
460.69
459.63
371.16
321.24
322.83
462.44
484.55
595.57
500.93
474.04
623.52
625.83
430.41
428.57
360.09
424.46
513.60
394.76
519.87
2329.98
682.12
509.13
466.98
532.55
617.98
622.67
672.73
679.54
691.71
704.18
663.30
585.25
742.22
700.20
866.91
473.34
316.64
401.92
462.00
507.14
403.92
467.49
413.86
412.47
507.68
659.99
571.01
558.25
452.86
537.51
388.87
373.30
546.16
373.30
404.44
455.29
440.21
2284.79
599.76
459.60
430.16
524.43
402.25
432.00
421.92
467.84
477.20
494.00
481.66
504.00
929.82
577.46
557.70
700.88
620.66
562.43
439.35
341.84
361.96
367.40
547.66
528.29
557.94
598.31
542.02
620.90
543.74
640.62
543.39
424.95
363.82
365.20
349.38
329.67
351.80
2292.20
452.37
483.51
397.84
515.02
441.91
422.33
369.69
563.95
519.43
661.71
696.56
654.99
1069.58
538.67
416.43
361.34
346.27
305.28
333.57
334.29
419.71
423.35
475.33
422.19
453.15
452.42
413.80
427.65
439.31
409.44
442.46
441.67
498.28
499.80
452.69
505.37
517.62
2374.32
573.18
654.24
729.65
685.01
547.58
466.36
407.94
678.21
925.53
1097.56
882.66
591.57
563.07
478.94
986.93
957.96
758.26
413.09
435.63
527.68
505.54
506.81
455.57
364.33
566.09
626.42
747.95
764.72
713.89
583.30
541.02
461.05
425.61
407.49
410.64
417.10
2341.26
556.74
464.20
495.70
538.08
724.98
701.58
588.96
379.21
382.48
382.91
427.33
443.38
1143.54
474.05
445.93
451.09
437.25
389.72
394.23
472.78
484.26
479.61
541.74
535.36
606.49
742.33
815.53
688.94
588.53
480.76
492.66
290.45
416.55
391.85
417.78
483.92
568.79
1737.95
366.27
704.16
462.70
329.93
496.40
503.61
440.15
386.02
402.56
423.77
488.57
614.93
789.93
610.26
651.79
533.09
432.74
393.24
489.63
597.27
556.85
510.37
483.13
426.19
397.33
459.82
311.57
413.84
510.26
411.71
625.83
514.85
563.15
439.98
299.44
401.15
554.94
2378.62
577.75
448.02
486.13
400.52
456.54
478.11
502.06
440.52
461.59
407.72
355.31
361.44
1068.07
509.09
627.50
695.11
703.68
655.67
631.18
566.16
579.23
541.24
505.57
362.12
453.08
485.91
457.58
442.33
514.66
347.34
355.53
341.06
391.06
364.25
485.40
398.72
451.18
2255.39
455.23
388.07
444.27
417.47
587.23
757.90
784.83
518.40
370.80
291.49
366.21
361.96
1057.22
503.94
616.43
613.48
508.72
459.43
440.57
415.41
412.01
487.45
637.30
631.01
725.77
666.42
429.81
335.42
327.02
438.15
504.12
413.85
474.74
422.68
337.27
415.27
316.14
2182.17
563.71
656.55
759.14
733.20
628.15
462.46
435.93
372.26
418.55
387.55
343.62
325.02
1094.03
528.57
602.17
605.44
598.98
512.90
436.21
431.92
355.78
408.76
313.59
381.63
397.65
406.97
439.02
466.02
449.60
434.07
428.25
358.49
429.37
384.34
527.78
492.41
523.34
2183.11
483.55
490.69
504.96
464.77
484.26
479.20
530.99
553.40
555.80
575.16
574.13
564.86
1156.76
566.46
522.71
698.44
692.44
539.96
489.02
329.37
327.93
374.61
520.92
553.39
615.50
577.99
412.39
414.74
396.76
361.61
512.16
471.83
519.12
503.33
518.26
548.20
536.00
2208.46
495.67
508.18
542.14
484.07
595.88
536.01
544.75
411.20
354.52
411.69
565.45
648.02
1294.59
1070.97
1118.07
1068.50
818.94
336.01
868.08
699.11
741.86
787.80
602.78
362.87
428.58
376.86
366.79
337.25
371.56
468.54
475.10
494.39
553.95
527.25
473.53
436.56
2229.70
536.94
662.85
610.99
629.73
566.53
495.40
504.43
393.38
442.89
568.99
557.71
561.51
1128.47
559.11
581.29
597.42
582.93
553.75
459.74
436.75
415.24
546.85
590.25
447.47
348.09
370.39
354.29
323.45
409.71
441.20
359.79
416.71
308.68
414.15
516.15
574.21
507.13
2248.74
581.47
583.49
541.50
455.20
432.45
455.65
517.94
375.47
388.92
349.20
370.00
440.38
963.40
616.09
504.48
618.65
521.87
501.76
379.88
404.63
437.81
411.81
327.68
401.84
505.45
626.58
465.17
526.25
463.02
499.79
588.63
544.40
556.05
598.91
609.75
694.59
733.07
2260.41
556.46
400.52
611.98
816.73
525.80
426.65
446.82
478.61
452.45
420.18
552.74
654.23
1109.56
613.16
505.72
473.56
471.88
462.78
486.25
499.78
468.33
490.29
511.32
482.88
535.93
641.05
547.07
565.75
521.35
507.44
498.67
469.06
436.66
465.67
439.46
553.12
538.52
2099.06
489.62
446.40
387.18
402.23
467.53
375.42
399.70
527.71
526.54
542.58
616.14
556.32
995.81
431.88
414.39
424.05
368.46
374.90
367.10
448.27
501.85
570.71
630.02
652.72
797.60
1115.72
924.58
645.92
358.40
399.63
332.76
356.52
299.29
358.90
410.10
396.77
447.90
1144.99
679.23
601.69
530.82
535.20
310.46
411.38
375.01
460.33
457.78
520.77
545.96
571.51
584.72
553.09
625.14
552.94
414.59
441.31
342.92
322.50
332.62
386.71
341.33
450.82
1990.38
548.01
692.79
802.67
637.61
461.58
476.74
487.78
532.84
482.84
337.08
343.87
369.71
1153.05
603.34
648.25
564.33
445.64
569.78
662.76
631.80
524.51
391.78
446.68
456.22
462.45
693.20
605.59
556.05
491.40
498.39
491.38
466.77
495.25
429.93
422.29
502.85
551.01
2136.52
660.48
507.05
420.01
401.73
366.78
339.49
361.41
437.05
584.21
362.42
519.96
541.23
1112.34
457.97
548.30
398.11
485.21
458.11
518.41
469.44
500.29
463.60
376.78
399.19
469.64
562.16
510.68
511.52
591.17
603.83
640.66
558.79
515.06
463.91
563.61
609.72
696.31
2077.02
610.06
352.63
391.43
327.27
335.89
346.43
350.21
368.23
411.73
509.77
634.93
556.95
1124.30
611.17
560.66
584.19
589.47
536.17
575.63
553.42
517.94
423.89
505.81
434.31
418.66
450.89
417.09
440.78
444.23
429.34
526.05
524.31
520.30
482.70
501.20
479.63
521.52
2088.39
633.92
697.44
776.72
595.72
539.98
501.04
462.82
333.53
360.65
408.27
417.37
359.52
1199.06
497.45
450.01
445.19
432.32
453.91
550.42
481.18
563.20
650.76
586.31
483.90
527.55
377.22
324.32
427.95
476.57
518.01
550.34
540.73
516.38
487.98
472.96
470.62
563.86
2009.48
591.48
474.66
398.04
342.34
347.07
370.15
421.87
592.23
591.79
579.88
551.34
481.91
1136.07
383.92
617.03
756.89
798.11
753.65
619.80
340.00
340.00
402.95
575.58
572.61
2069.58
577.75
414.15
316.19
345.48
476.16
468.80
358.86
424.10
367.03
409.08
369.10
401.09
900.14
541.18
491.15
494.10
504.44
489.42
520.47
601.53
665.41
704.58
595.60
348.19
591.11
441.18
316.92
364.02
394.56
534.86
586.07
582.37
567.55
504.49
449.82
524.49
489.59
2003.10
474.33
364.11
349.79
479.22
625.83
606.97
484.40
530.50
500.74
422.74
349.81
436.71
863.58
522.45
552.82
552.22
473.83
548.69
526.09
551.70
426.68
448.45
576.05
559.05
640.07
740.89
635.38
660.43
494.41
382.12
351.19
383.10
367.47
398.74
505.40
577.61
541.21
1990.91
542.47
520.55
384.01
397.09
399.03
420.99
323.15
453.53
472.46
444.74
476.43
438.66
832.57
419.39
385.11
536.47
534.26
650.44
722.48
656.04
627.43
612.74
477.30
390.75
354.07
464.54
372.26
403.05
426.96
371.61
431.41
378.23
422.82
377.90
385.77
437.53
334.03
2015.70
571.95
687.08
637.99
579.09
616.73
658.59
622.34
680.32
508.59
397.61
368.58
423.57
1064.13
544.36
562.50
531.30
494.97
496.63
499.67
485.69
446.30
490.87
457.13
571.67
510.61
608.94
314.29
414.54
268.63
423.73
497.44
508.64
571.74
646.93
499.55
325.82
368.00
1918.92
396.37
432.48
503.31
483.49
456.98
536.15
681.78
754.71
725.67
733.87
495.96
412.54
870.04
417.12
541.89
575.11
662.87
568.21
424.70
414.83
376.79
299.28
374.09
360.33
400.68
325.21
335.23
454.10
576.81
586.25
534.31
425.13
514.47
622.16
672.31
711.44
493.16
1959.67
554.54
495.46
531.12
598.15
476.53
474.75
510.29
410.17
362.85
442.85
460.23
477.82
1001.08
507.86
437.08
468.94
466.28
473.99
385.93
438.59
441.76
560.23
426.53
485.40
410.80
654.79
521.68
479.01
486.85
506.58
557.60
531.19
528.63
524.51
506.33
518.95
531.33
1996.73
649.15
667.02
668.11
655.60
465.40
430.52
400.92
382.94
392.89
461.08
506.25
459.20
937.43
469.22
333.89
278.40
282.27
379.16
319.77
399.22
476.64
494.11
398.90
398.51
316.89
460.52
360.87
373.18
361.61
354.83
367.92
420.76
394.11
508.97
398.68
548.98
645.46
2074.66
666.95
591.58
396.93
416.45
465.70
490.88
415.77
439.29
442.40
545.67
695.02
702.33
1059.68
473.82
323.84
298.25
378.71
467.37
543.59
537.58
461.11
554.97
574.63
579.48
391.19
423.17
323.41
304.86
335.33
430.38
332.61
460.58
392.59
425.60
383.78
330.75
308.01
1779.60
504.62
548.35
513.18
582.44
545.15
488.51
513.86
568.66
600.05
646.98
390.19
431.02
913.42
596.88
610.70
681.53
525.79
513.30
469.69
499.78
389.40
388.87
588.75
618.98
455.31
524.44
348.60
422.22
535.21
557.14
459.81
391.02
419.16
410.45
321.10
391.40
405.39
1880.43
548.56
668.23
609.70
706.27
653.07
704.16
657.85
628.56
440.81
335.30
519.67
508.75
997.76
512.81
442.10
403.48
449.18
371.63
372.93
355.75
329.85
364.50
398.45
411.13
398.61
555.78
458.22
517.82
523.15
568.49
522.87
409.69
292.64
345.25
341.67
533.75
458.37
1887.19
573.25
541.06
464.68
394.57
498.48
435.16
444.79
434.91
458.37
469.75
458.76
472.04
853.04
491.82
465.85
510.28
470.31
467.60
411.24
407.83
401.68
489.72
309.38
365.53
351.96
534.00
496.71
578.05
562.34
584.97
562.03
649.26
729.23
781.17
508.83
336.89
362.80
1779.59
339.56
329.52
322.25
417.51
521.53
586.38
611.00
373.02
319.03
274.69
344.83
366.39
940.46
517.05
550.65
489.01
505.16
483.19
459.54
565.94
518.37
517.17
556.56
553.56
589.30
784.38
623.97
484.90
431.48
346.95
393.94
348.09
293.80
339.35
422.71
565.06
562.31
1476.57
570.03
582.25
476.05
476.31
441.36
407.53
414.84
430.48
488.87
540.84
506.85
479.09
680.46
604.59
809.60
849.30
601.51
412.53
357.30
301.41
316.16
330.72
376.42
571.28
1561.61
582.47
582.35
710.64
792.62
599.47
466.25
529.32
572.33
495.22
267.36
281.73
323.83
471.18
355.45
391.92
342.10
275.90
414.41
398.11
372.54
389.48
362.89
332.62
345.37
428.65
540.86
460.14
341.17
356.13
403.73
488.05
521.28
517.65
507.53
480.69
477.81
518.75
1694.17
496.17
483.05
562.44
474.49
532.71
562.68
465.73
422.65
382.99
407.79
444.17
426.50
1133.78
513.56
511.50
554.32
520.29
368.24
409.80
417.83
514.82
521.89
542.60
627.90
658.60
662.90
589.03
471.93
465.69
369.01
426.17
613.69
581.11
514.70
494.14
469.86
517.46
1699.24
519.63
281.72
425.42
307.57
400.62
590.22
594.89
452.07
374.82
451.05
559.86
658.90
1127.84
415.89
341.34
384.19
299.59
406.80
449.65
486.88
529.55
504.33
549.09
575.68
590.59
691.63
588.03
438.65
340.08
377.74
502.63
619.38
495.88
486.04
367.13
287.44
290.68
1417.25
351.67
307.07
391.49
434.66
493.26
487.65
537.10
428.96
389.53
315.43
391.93
573.92
1109.28
482.47
457.28
423.48
437.91
480.73
425.24
391.57
526.34
623.02
817.38
1026.72
2075.24
1134.18
623.35
375.04
1073.20
1057.42
555.27
382.01
356.38
522.90
737.58
800.44
1637.44
626.75
514.19
503.44
381.68
388.32
459.94
441.21
479.65
351.56
357.32
246.06
351.62
537.50
498.43
514.65
492.50
417.40
419.51
459.08
555.28
462.01
615.91
578.54
492.78
404.69
447.70
480.98
554.80
487.67
415.90
346.79
384.52
472.52
437.54
414.13
403.39
387.86
1538.78
506.62
464.40
476.02
486.55
456.56
399.53
390.71
529.13
470.62
546.87
618.39
613.29
1073.47
632.47
420.15
348.96
390.20
412.06
398.80
462.36
458.70
524.03
555.45
769.63
710.74
733.78
489.49
375.52
317.43
326.52
373.42
604.36
590.66
534.80
491.68
383.75
368.45
1606.28
396.83
410.74
337.34
385.71
426.14
483.19
412.68
386.79
322.09
416.31
349.77
472.74
1038.55
595.04
551.33
608.42
441.81
397.24
309.53
359.10
416.06
351.60
345.98
509.32
421.44
649.31
528.45
501.15
407.76
405.65
417.52
500.05
492.21
510.25
519.13
559.75
519.16
1576.62
727.34
662.24
596.51
597.21
560.22
539.40
429.46
361.77
338.92
570.07
593.05
637.49
1115.30
526.10
434.96
425.72
371.63
328.36
377.25
360.84
405.71
376.37
379.66
292.65
588.21
477.41
386.55
291.13
378.91
464.43
377.21
392.53
340.47
327.90
313.53
390.92
534.97
1665.98
601.20
658.22
685.24
785.20
837.52
763.80
612.29
552.80
385.04
324.64
407.67
477.92
957.99
507.11
503.59
350.66
341.35
444.34
477.71
356.14
515.39
573.51
491.32
535.15
486.50
516.60
544.48
570.01
476.25
517.62
407.97
432.46
395.62
441.58
491.50
548.29
607.65
1454.40
376.78
315.34
278.24
469.08
365.49
406.86
463.02
507.97
386.27
547.17
764.29
698.35
1127.64
567.87
463.42
335.92
376.35
475.06
307.86
328.75
392.44
522.64
526.21
528.77
441.98
541.61
564.95
571.83
481.14
542.22
562.55
559.34
574.32
581.24
523.80
317.70
421.18
1451.65
511.73
557.41
411.93
334.94
437.80
529.90
512.36
588.78
547.29
562.78
382.83
409.47
952.30
550.89
638.68
625.32
424.94
371.22
327.96
357.69
318.18
422.55
346.40
318.71
380.79
495.36
508.71
588.02
602.04
540.90
533.93
520.33
529.77
606.71
461.60
328.39
394.34
2913.71
449.59
562.48
383.35
453.58
474.67
514.34
429.12
369.16
316.23
290.30
392.84
393.25
1078.25
498.68
434.31
495.15
507.69
675.76
630.47
557.24
446.44
370.99
325.12
309.86
397.80
605.86
497.56
523.29
477.70
544.20
601.99
682.20
615.54
606.21
652.36
572.33
344.75
3148.47
406.11
384.15
433.07
489.33
591.21
610.08
699.90
693.24
821.07
810.82
503.36
485.85
660.33
322.45
483.87
486.34
424.55
571.46
532.60
500.26
554.89
488.69
479.74
412.82
304.81
482.80
341.83
399.25
385.28
395.46
545.61
506.16
499.02
526.65
409.96
425.00
395.02
3073.34
486.27
631.45
632.68
702.21
688.07
605.22
408.12
389.72
310.43
303.78
366.09
368.79
984.24
571.18
511.96
353.98
261.69
295.90
334.26
490.04
508.94
558.87
509.78
488.46
489.16
563.13
458.09
475.43
497.79
494.36
478.08
418.77
464.29
501.40
451.00
527.84
401.22
3003.00
583.71
488.87
517.59
451.44
416.36
383.45
454.37
571.27
507.17
546.51
426.74
512.12
1027.82
595.63
576.50
541.71
366.07
393.24
361.58
442.41
429.14
390.50
303.40
265.67
354.86
675.75
596.98
529.91
555.07
484.51
339.70
409.11
543.63
587.07
557.00
431.88
341.23
2979.97
394.12
350.41
436.34
435.85
425.19
495.72
488.02
532.64
505.16
483.97
505.87
659.70
1104.29
649.70
455.40
470.14
357.48
557.25
400.73
402.88
386.29
612.83
697.33
788.13
530.22
407.44
515.44
565.04
294.98
386.84
309.47
485.63
456.28
557.79
605.24
762.46
801.34
3009.74
375.03
293.49
300.22
404.51
511.01
498.12
510.81
491.19
438.69
444.78
421.75
431.89
557.02
428.73
364.30
466.90
588.83
634.20
565.74
584.43
575.49
385.78
337.67
334.55
328.83
404.54
347.82
524.12
466.29
507.49
425.21
528.62
442.50
453.28
446.00
406.59
383.06
2830.03
531.35
539.42
491.56
493.63
546.04
590.40
542.47
502.47
498.31
552.48
569.50
473.37
989.50
508.16
488.36
482.00
556.52
585.76
592.04
646.62
630.47
603.79
612.79
665.76
482.49
426.83
590.02
615.78
355.28
386.90
365.79
434.30
500.72
551.11
493.53
423.24
406.99
2931.08
468.86
471.09
352.10
265.13
274.22
377.22
232.89
316.90
385.16
359.79
384.48
481.97
1046.91
452.27
468.71
465.15
540.16
567.33
613.81
678.13
571.07
664.55
597.48
523.80
355.96
500.10
430.40
478.92
407.05
496.02
382.24
485.36
437.00
513.43
586.18
739.54
811.36
2828.60
388.92
667.83
642.11
366.55
471.69
663.94
581.41
660.17
509.21
461.02
482.86
502.22
1143.90
523.46
371.55
380.38
345.21
574.36
523.54
456.00
387.20
359.84
464.08
577.19
405.54
452.91
466.43
421.23
515.03
568.96
576.63
540.27
443.23
428.69
430.31
439.79
430.67
2845.38
478.38
582.72
535.62
536.44
382.12
340.17
289.33
395.43
421.25
343.34
304.94
385.69
942.42
437.01
474.78
481.54
446.35
416.10
437.35
532.36
385.29
450.23
423.65
392.35
433.03
548.19
629.18
551.42
568.48
589.64
459.34
421.54
468.35
540.27
555.31
525.78
503.82
2882.12
444.68
356.33
459.57
500.76
586.67
580.78
573.16
544.78
556.40
528.31
451.95
530.65
1073.45
617.70
478.27
433.02
424.38
392.26
318.67
399.30
382.44
313.93
272.95
283.89
343.07
478.61
460.74
587.94
521.65
516.93
378.64
358.54
465.02
531.50
506.09
535.34
557.04
2831.48
452.07
420.45
443.31
512.44
467.14
383.54
343.00
353.39
308.27
393.69
368.63
436.10
1031.11
477.30
442.64
495.03
338.46
507.27
564.42
670.89
556.09
465.79
421.16
421.79
443.03
688.55
546.83
559.28
323.61
328.36
306.55
425.82
525.65
536.36
457.41
462.32
484.92
2901.64
594.00
748.55
689.82
605.90
585.43
438.94
352.35
309.86
297.19
320.85
444.03
500.56
963.11
362.45
305.87
397.22
262.72
374.40
501.79
577.91
561.02
419.47
279.83
341.59
386.94
722.01
799.42
1004.97
973.05
956.09
554.08
387.35
478.71
361.69
361.51
430.20
518.47
666.03
609.04
518.72
369.50
337.59
329.89
364.77
402.88
411.21
387.08
431.74
421.91
2842.67
479.10
407.31
464.44
515.76
523.78
501.69
473.92
504.16
431.28
557.69
520.28
608.66
1125.59
446.64
455.53
480.38
444.42
406.89
421.17
566.35
446.70
483.92
499.87
544.55
504.77
768.80
584.38
631.48
621.70
686.42
721.00
628.89
472.02
336.03
364.94
347.76
303.35
3050.06
578.84
751.85
586.59
297.82
296.00
389.47
348.51
437.13
416.22
419.37
428.12
482.88
1128.33
563.02
552.33
559.85
543.64
543.68
427.96
430.17
456.07
504.99
472.64
499.18
491.74
541.48
521.54
690.67
570.82
460.42
314.53
322.14
377.94
559.69
838.68
933.75
807.28
1117.68
340.38
321.26
299.27
277.45
342.68
349.83
302.94
357.84
504.56
516.22
446.52
2790.51
657.78
670.13
596.02
522.90
351.07
305.34
333.85
413.39
388.30
497.85
346.65
385.33
913.42
607.16
547.17
511.10
479.04
442.85
534.89
493.31
435.41
420.36
451.82
428.87
399.55
490.50
422.85
526.63
456.99
443.56
362.04
396.92
403.42
452.16
392.38
398.64
490.89
2810.82
453.19
495.34
421.40
527.22
463.43
431.50
335.61
423.96
438.21
596.59
604.89
664.51
951.66
666.46
597.58
523.14
441.42
395.36
440.08
469.62
367.78
352.26
367.20
425.88
375.58
447.12
509.05
643.34
632.25
667.68
533.18
491.24
319.38
345.19
341.35
440.24
420.60
2701.06
469.30
529.69
482.77
448.04
492.79
556.67
531.74
436.30
407.76
474.30
462.62
517.88
1029.13
425.32
430.41
489.67
421.74
387.53
361.48
337.93
396.28
406.37
403.62
443.63
492.89
560.97
489.86
524.45
412.69
395.52
351.54
384.94
319.02
417.93
421.49
402.73
432.09
2775.32
528.97
589.82
574.77
647.38
692.52
806.40
776.01
831.66
705.83
363.10
895.08
1095.11
501.39
427.93
674.20
839.21
774.00
846.75
761.64
602.27
319.68
408.40
326.61
373.51
398.38
366.87
401.74
414.28
365.59
437.46
356.97
337.87
364.37
431.12
458.43
428.62
2776.09
562.70
466.59
544.08
485.82
480.86
469.30
515.77
518.31
544.47
553.91
655.60
624.51
1217.91
610.72
528.96
413.50
440.62
304.25
342.49
428.49
502.62
558.59
611.21
575.90
565.82
500.02
388.27
360.59
396.01
385.23
357.31
420.31
404.66
380.85
413.81
330.13
461.68
2648.10
843.16
756.61
704.21
538.64
520.59
426.74
333.63
397.59
470.80
561.55
567.30
444.12
522.15
366.58
348.64
520.39
647.77
742.08
723.78
507.91
414.11
372.64
333.49
389.07
409.80
395.02
423.89
458.48
544.96
427.83
421.98
432.15
464.46
473.16
505.43
586.02
524.89
2660.61
497.58
448.69
472.11
454.57
379.34
372.61
355.77
405.19
495.08
539.42
612.38
524.45
1190.38
292.90
403.26
452.26
493.63
458.26
449.71
436.87
530.80
510.71
593.60
520.38
585.78
879.99
872.61
786.27
604.21
365.09
371.16
364.99
354.85
430.72
587.24
773.35
662.38
773.04
474.55
690.78
445.80
328.46
382.41
388.73
384.12
446.63
345.96
323.23
347.14
342.24
631.06
499.72
504.74
426.45
424.80
452.33
456.41
483.71
357.66
402.76
399.42
498.15
612.60
813.55
671.39
676.24
552.82
620.58
734.92
595.59
479.16
278.41
388.78
317.88
536.81
2556.30
762.44
670.91
456.87
320.95
342.86
345.78
482.29
477.25
507.62
373.92
330.49
302.80
495.20
384.52
389.25
350.34
418.66
421.47
548.61
652.32
654.24
497.42
555.67
444.48
386.22
453.27
420.62
433.52
413.09
338.90
298.82
338.90
317.76
279.22
378.76
441.97
466.38
2665.44
472.26
486.85
574.41
504.34
555.85
442.87
496.65
500.90
457.02
427.81
403.59
469.68
1244.87
680.63
655.55
598.45
565.64
384.45
360.22
369.29
376.14
427.42
412.05
357.97
420.74
649.23
719.22
690.79
631.27
519.39
494.12
432.68
595.51
604.95
516.08
480.64
423.31
2572.61
376.32
309.50
363.81
398.63
519.06
443.30
394.87
398.51
387.13
307.30
421.92
462.43
1163.94
566.35
586.37
536.35
443.94
347.53
512.69
474.15
518.75
639.32
596.26
540.43
402.96
406.28
413.31
321.01
378.53
367.93
521.21
489.72
543.64
437.11
530.76
350.40
376.03
2609.80
613.95
576.69
525.97
396.51
384.72
419.67
384.94
431.48
493.27
488.66
538.90
476.84
1091.15
446.65
464.74
403.40
507.04
512.83
507.49
566.20
618.16
643.82
500.85
608.28
474.44
548.68
588.09
638.15
605.45
526.45
569.10
340.68
358.17
301.36
402.75
346.48
366.38
2694.18
393.30
425.11
508.54
687.89
713.71
743.60
787.23
642.69
450.08
380.92
404.89
306.23
1080.68
535.01
596.57
474.57
380.62
340.33
353.76
329.60
372.95
416.34
471.71
385.67
404.00
547.02
454.20
466.04
475.82
478.27
473.53
466.24
467.72
480.51
552.78
477.87
457.54
2568.47
557.08
580.94
609.59
588.93
493.02
389.95
416.18
464.53
569.89
648.94
700.59
618.02
1115.69
490.21
399.28
383.79
496.98
423.04
350.01
353.71
501.65
682.12
732.79
588.25
446.52
993.28
562.57
332.67
324.94
383.05
518.14
439.46
474.18
526.72
584.40
708.71
619.20
1666.79
686.55
550.47
555.21
468.09
598.02
629.06
503.49
404.57
415.94
363.72
306.00
321.99
580.73
419.54
417.04
351.90
428.77
391.42
417.96
377.42
481.56
485.65
522.50
534.82
494.68
594.23
663.53
545.81
526.63
489.96
401.81
373.56
439.20
487.12
476.78
463.15
453.61
2536.16
403.38
363.92
389.39
490.63
555.82
441.70
473.71
459.79
530.91
399.76
365.54
331.46
1074.18
441.74
427.43
363.61
437.29
482.48
490.50
466.57
618.66
588.55
649.80
607.32
410.29
446.66
288.25
462.06
637.59
923.06
938.57
708.49
599.98
482.74
426.00
317.43
423.79
904.24
505.08
390.74
473.26
327.35
323.67
321.82
326.44
358.41
390.12
368.89
429.53
420.93
583.45
540.03
430.25
424.20
406.82
301.26
461.81
490.99
517.41
491.12
607.96
517.85
2580.41
453.88
498.64
505.79
492.69
454.89
546.00
646.36
659.94
637.36
424.84
417.46
383.18
864.96
355.08
350.39
505.52
505.31
476.38
368.23
519.31
474.11
585.68
550.03
447.73
395.70
446.57
444.41
474.06
468.98
488.72
578.84
556.78
515.42
629.03
548.41
523.74
447.35
2486.79
571.84
571.18
506.64
454.59
347.47
403.38
511.16
484.77
382.72
462.86
756.14
623.47
861.54
786.61
630.50
529.89
510.87
514.40
492.56
496.56
511.79
532.22
530.05
469.79
389.69
509.55
456.38
462.42
435.88
523.70
347.51
395.03
399.36
365.43
380.16
393.81
457.42
2561.11
461.93
429.51
413.54
412.25
455.83
502.12
467.92
486.36
447.76
485.59
469.20
564.17
887.91
569.48
629.55
522.92
452.00
502.19
537.66
664.09
619.68
573.48
480.83
388.99
333.33
450.26
405.12
357.37
377.33
348.17
365.28
432.85
466.15
523.70
470.78
517.36
456.22
2517.44
334.76
420.97
436.51
497.21
393.83
435.86
504.68
521.98
538.28
586.10
487.38
424.64
793.91
498.38
594.35
725.96
632.61
624.80
589.99
701.68
860.47
1092.88
959.65
673.63
2780.64
428.73
308.18
359.75
390.05
315.93
601.10
735.76
685.91
517.20
337.49
428.34
582.99
857.50
613.68
493.38
388.65
364.68
365.80
485.08
517.47
546.48
425.41
429.39
422.24
2500.46
534.10
575.48
486.97
515.45
455.89
504.03
546.60
661.91
699.97
688.90
645.13
592.38
899.84
445.43
467.20
385.97
404.46
450.44
443.05
456.62
447.75
562.52
497.10
476.90
378.91
494.61
343.59
451.43
565.74
548.00
498.31
431.14
397.58
489.48
523.72
545.44
520.07
2577.36
591.10
485.67
427.85
479.98
425.82
393.31
441.46
432.80
599.44
650.71
558.72
537.80
850.28
433.37
326.74
352.37
383.14
296.88
345.69
468.48
441.11
375.50
326.91
342.47
372.92
527.91
461.57
558.60
525.90
450.93
420.20
462.65
536.35
511.83
436.58
458.95
415.88
2510.67
344.48
393.44
459.28
630.89
626.39
656.59
490.62
510.63
455.50
521.15
562.16
766.42
1134.46
561.98
401.16
697.09
829.33
412.11
346.49
447.37
451.50
479.81
453.08
471.09
2398.47
559.95
508.47
515.34
444.22
459.59
496.46
602.48
508.84
511.00
484.48
457.05
472.97
1177.19
575.00
626.62
570.80
558.09
540.67
570.98
517.39
443.81
403.72
379.67
346.88
438.17
464.54
527.19
467.64
574.38
401.48
359.93
363.33
471.91
409.83
410.61
364.02
507.71
2334.62
472.16
418.74
465.60
464.65
547.95
648.93
515.55
431.75
448.95
417.98
420.56
375.91
1142.98
420.49
405.18
409.04
550.92
594.36
618.82
564.75
555.20
377.73
331.89
417.95
473.06
570.80
448.93
392.09
433.11
412.50
410.66
445.76
479.71
363.78
448.09
456.20
491.25
2405.09
479.59
505.48
469.71
440.19
525.53
455.25
465.69
427.28
405.29
350.52
450.40
476.81
1173.47
466.68
529.98
606.11
687.65
747.25
648.71
390.60
514.02
623.53
384.38
382.16
347.03
396.27
463.41
501.92
577.53
519.95
504.12
579.90
677.22
736.54
773.15
725.55
558.91
2369.41
638.12
675.98
692.74
673.17
473.37
337.46
441.32
586.19
626.49
375.20
283.54
376.29
1197.61
516.79
441.89
460.66
522.25
479.67
519.60
513.50
447.68
515.47
466.05
530.52
567.86
630.75
501.86
508.91
462.46
520.29
494.63
449.51
450.79
439.41
460.52
466.69
474.95
2294.24
526.68
520.27
538.89
603.86
544.77
409.48
484.31
406.08
434.74
470.11
660.96
806.89
1429.67
711.48
567.51
394.81
419.02
447.06
588.95
567.88
428.39
339.89
393.28
373.14
2404.65
334.57
553.82
741.16
521.08
358.20
408.45
485.02
522.82
562.18
504.97
355.24
475.32
1028.43
640.76
520.01
579.84
514.23
574.02
451.19
384.43
345.25
431.24
393.15
436.09
445.77
616.53
545.08
625.51
549.54
556.10
535.31
474.39
373.02
445.64
499.63
486.69
408.61
2323.94
386.02
513.44
557.81
565.33
559.67
500.98
527.39
549.57
523.38
593.40
555.91
539.02
1121.13
793.91
951.76
982.08
606.81
536.09
885.96
799.23
397.71
408.87
477.71
537.81
687.43
609.20
568.55
541.34
490.21
411.36
404.51
426.49
412.61
457.64
483.25
555.64
424.56
512.87
511.61
347.12
418.78
497.87
555.81
596.11
532.30
529.37
432.77
388.36
408.47
2284.39
556.93
595.10
545.41
570.42
581.65
559.09
458.14
373.84
390.05
408.23
423.08
500.47
1041.62
555.21
378.18
412.52
487.46
443.13
445.66
470.47
430.24
519.14
387.69
411.50
407.66
493.59
509.78
559.59
484.51
574.07
576.78
559.90
590.39
534.70
506.12
479.12
425.76
2258.68
469.75
512.99
576.01
580.45
559.20
615.79
553.04
426.66
443.77
512.70
359.10
387.43
815.02
465.97
534.32
551.28
532.98
590.65
507.19
522.64
481.35
428.23
494.05
377.12
451.63
618.75
508.50
545.26
531.41
487.24
420.71
532.21
446.91
420.54
501.59
543.91
437.93
2281.91
477.53
471.37
326.12
397.48
412.16
484.12
492.19
537.55
413.68
454.70
451.38
611.75
1104.43
779.86
735.38
585.41
503.23
505.19
327.31
392.02
389.44
350.27
417.46
473.52
2267.28
574.58
429.08
406.20
386.12
372.00
465.57
470.90
455.25
491.65
436.81
475.60
464.02
1194.81
519.03
546.24
641.24
652.47
729.19
816.65
778.87
606.93
340.36
446.41
590.05
2375.22
436.32
504.49
582.80
588.52
477.70
408.89
337.54
394.11
372.97
502.60
455.76
497.25
1040.26
534.69
535.96
617.35
588.91
663.22
642.78
614.73
502.18
645.28
441.17
529.78
493.58
540.10
545.52
602.10
561.98
551.85
525.43
501.69
441.35
429.44
418.61
422.42
478.39
2198.71
746.71
666.89
620.45
536.93
391.94
453.84
493.96
374.76
438.45
401.00
362.85
437.83
918.59
484.54
504.57
469.81
497.69
412.98
440.43
534.64
594.44
700.57
846.25
877.37
726.75
555.40
369.57
404.00
338.69
356.23
389.47
449.04
440.21
485.16
551.81
543.46
569.41
1535.86
496.17
555.63
557.81
552.64
484.75
567.55
547.27
606.69
618.67
498.30
342.07
412.66
558.16
477.90
580.91
726.05
460.20
392.17
371.41
363.51
448.21
594.87
696.81
748.41
581.64
565.64
438.08
397.58
420.20
373.40
402.40
364.83
379.03
333.91
443.15
374.02
378.25
2175.39
584.57
631.51
613.41
624.55
608.05
627.52
517.92
458.35
412.20
573.21
530.46
519.12
1048.58
698.00
759.91
692.92
413.22
375.68
324.28
325.60
351.10
350.21
310.51
475.36
490.10
608.20
584.47
583.99
526.39
526.29
572.08
636.83
484.34
365.14
317.04
415.53
415.61
2168.52
366.59
426.44
470.63
516.99
547.93
498.06
535.86
488.93
445.50
517.25
414.06
466.98
932.63
545.17
413.83
407.68
484.63
613.72
610.30
732.04
873.37
489.57
321.11
461.99
2090.82
576.04
539.87
630.38
516.50
382.09
381.38
422.20
384.52
385.58
381.64
390.79
357.44
1174.71
481.16
514.36
515.11
557.94
477.04
513.01
409.49
482.93
475.98
487.44
507.86
477.90
553.11
607.37
590.92
591.77
546.26
563.81
514.73
401.56
398.26
431.25
486.68
499.47
2097.05
568.88
564.00
486.83
440.49
500.76
461.93
619.37
592.99
595.69
529.90
492.68
466.22
1235.49
632.06
525.59
473.36
379.88
325.42
546.82
784.03
920.11
628.53
475.19
416.49
2215.84
418.67
611.28
648.44
629.13
496.35
526.10
569.57
774.25
619.15
382.22
562.13
742.66
1198.77
646.07
364.75
506.85
439.51
427.10
485.99
564.74
546.08
500.83
416.45
575.84
477.27
503.65
498.94
532.32
591.97
655.48
548.99
539.18
532.15
499.89
531.06
584.97
592.86
2126.72
801.49
765.36
604.67
502.39
321.07
393.26
431.43
350.21
387.97
418.75
427.89
446.92
566.05
564.37
487.76
546.43
605.92
658.79
499.26
398.04
350.17
369.14
344.97
400.42
516.23
574.57
562.14
567.76
551.46
647.23
605.93
642.36
538.44
538.47
482.41
583.75
520.90
2069.08
540.47
558.96
644.04
607.94
477.42
412.16
420.50
344.86
367.46
379.85
376.66
372.99
774.23
386.91
323.47
442.47
320.64
366.39
499.98
627.47
517.58
560.86
508.53
476.08
434.36
513.86
472.00
560.11
526.94
612.40
528.52
486.95
500.27
425.85
356.83
433.29
330.40
2016.75
546.34
642.92
709.17
736.79
730.30
574.62
573.01
421.98
430.39
403.20
373.18
418.77
883.60
512.56
416.09
480.68
530.29
519.22
510.24
587.60
542.91
543.67
501.60
439.06
441.96
591.83
499.63
544.38
521.03
532.16
552.66
504.88
518.49
487.35
626.17
555.33
610.39
2040.16
445.72
529.57
466.68
420.73
369.54
373.91
376.81
389.18
358.74
428.72
402.41
418.44
936.12
538.87
465.22
444.89
422.02
475.79
457.08
488.22
577.42
532.31
558.68
720.20
774.13
1001.13
573.75
500.38
1040.40
615.00
381.56
650.81
884.51
1004.55
657.64
482.98
407.27
417.07
409.21
493.45
658.61
691.53
592.29
655.66
583.42
519.40
480.77
460.81
426.52
2019.50
428.96
528.40
506.50
537.98
348.68
384.06
308.94
425.99
518.17
577.47
565.30
603.87
1051.54
485.89
481.40
511.59
559.24
549.81
501.60
525.18
417.85
375.81
377.92
414.85
338.56
573.16
531.81
556.53
515.28
611.56
704.39
586.48
530.56
660.91
476.89
474.47
411.98
2048.84
470.18
538.49
455.39
443.36
405.89
387.49
447.33
473.18
457.33
491.41
456.33
542.76
1096.12
640.78
515.12
669.69
705.07
700.54
643.92
607.72
550.63
478.49
354.38
354.95
730.02
760.29
397.63
614.72
695.85
536.00
484.00
633.47
597.98
548.24
582.43
488.35
417.05
1952.29
417.20
404.93
400.88
388.81
361.04
561.72
645.14
542.53
370.61
454.73
406.74
391.32
902.50
543.57
551.41
653.90
623.91
617.40
568.06
579.73
558.46
485.82
493.59
484.42
466.85
587.34
607.95
568.06
531.67
547.37
555.05
531.99
484.60
475.97
434.18
479.75
388.81
1928.07
520.21
531.66
465.19
342.20
389.70
460.66
466.68
559.31
487.92
493.17
506.13
553.36
940.35
565.90
544.18
530.20
525.06
489.84
401.33
517.47
463.46
496.13
543.67
585.84
554.02
622.42
558.50
476.52
366.89
452.98
362.90
475.97
390.07
468.66
480.70
549.58
493.36
1929.27
346.03
287.45
336.80
502.15
542.52
686.89
537.35
575.86
464.81
453.63
450.13
492.01
906.41
405.72
455.69
648.68
599.53
665.15
510.45
529.08
478.48
535.41
472.27
442.68
432.76
523.39
386.59
449.51
397.84
375.04
414.61
506.30
448.49
546.52
430.80
483.68
410.98
1948.56
368.84
459.69
506.50
715.96
686.50
676.25
538.55
469.48
339.53
368.85
540.84
705.79
1028.80
467.75
401.30
533.25
402.60
454.18
481.37
479.97
506.76
478.23
418.72
426.74
408.43
434.64
411.49
352.14
318.18
581.56
758.60
627.25
593.01
559.53
344.24
327.61
338.91
1880.63
417.51
465.54
422.72
460.61
373.05
400.37
453.77
538.03
498.00
443.51
481.27
617.40
1138.30
845.78
727.60
555.09
275.73
299.03
376.90
405.55
535.84
580.72
373.61
350.86
1857.37
669.01
594.03
657.53
557.83
448.01
337.72
347.18
282.63
415.42
311.21
335.27
377.22
1194.40
436.33
543.34
456.52
523.61
449.57
488.83
506.99
513.84
443.79
485.49
450.64
408.51
506.65
563.19
562.58
612.12
658.60
746.93
602.04
597.46
436.91
326.78
250.90
388.81
1668.77
508.83
470.91
514.06
513.07
570.41
612.11
576.79
559.12
534.63
446.04
533.59
491.98
1238.69
586.74
611.09
553.92
612.82
626.95
605.56
354.28
370.77
331.43
435.68
424.60
653.51
788.85
862.33
812.79
743.45
529.58
492.96
403.36
382.95
361.68
389.69
303.47
317.74
1483.65
280.56
255.29
370.96
381.83
581.47
556.24
602.90
548.21
567.42
620.69
677.99
701.29
792.88
394.43
608.61
818.46
293.45
504.49
625.35
580.37
543.82
492.84
518.65
607.99
686.18
854.26
767.48
605.69
404.25
287.40
403.79
461.16
638.27
473.01
331.19
287.02
332.02
1457.35
446.93
493.37
544.53
612.73
701.30
578.29
583.46
286.43
266.67
370.77
560.29
649.84
812.01
529.31
557.24
371.23
473.31
370.49
479.93
486.07
464.46
280.29
320.66
332.69
1806.12
407.80
478.30
438.10
546.88
493.42
454.72
401.72
480.96
514.72
419.37
344.49
462.60
1159.02
738.07
638.98
517.02
368.18
334.08
294.15
377.68
363.64
378.49
433.03
433.32
426.18
509.44
392.75
457.27
457.34
546.43
554.95
488.88
439.58
489.99
531.58
433.47
430.91
1769.17
542.53
504.52
549.62
514.10
527.98
562.82
521.85
613.08
573.67
670.10
663.41
678.23
1050.17
609.89
479.00
329.49
485.67
294.60
332.25
491.22
442.19
453.73
369.66
425.17
467.69
550.96
566.71
594.39
575.97
549.37
548.81
523.75
486.25
472.93
569.01
534.42
520.92
1711.05
514.75
509.01
505.00
533.47
468.44
515.63
448.24
469.48
405.87
483.38
389.90
410.39
845.30
353.18
365.29
396.25
399.41
418.14
395.15
389.15
466.53
445.09
368.94
485.39
395.80
616.89
571.21
678.32
724.98
731.40
668.05
426.12
285.79
309.50
584.50
898.98
732.22
1895.56
331.31
315.34
359.02
722.42
886.12
1016.09
841.43
652.41
548.98
474.57
365.35
1417.80
307.87
317.74
308.56
330.14
387.33
391.24
240.93
309.48
264.04
262.72
352.40
319.81
502.32
420.85
336.50
411.02
421.47
528.80
551.91
512.97
499.19
471.07
460.51
535.99
477.10
586.09
466.68
476.89
356.14
419.79
387.68
465.60
465.56
455.58
526.14
551.90
614.07
1738.46
623.70
802.10
712.98
692.26
453.87
402.66
497.10
425.90
333.39
435.24
544.84
670.60
1115.66
573.49
544.85
684.01
471.26
472.46
536.07
622.70
574.10
554.47
540.96
434.47
307.33
351.78
286.64
279.27
354.88
521.77
533.25
409.75
335.88
269.89
280.33
307.10
375.20
1578.36
386.13
393.58
459.67
374.28
378.63
470.75
505.81
463.63
495.56
495.37
592.95
706.22
1127.84
796.06
446.84
340.17
283.26
331.21
378.70
411.33
437.01
570.13
563.31
601.81
600.26
684.13
629.13
624.10
481.17
449.78
331.21
386.88
570.30
683.40
555.26
343.76
524.96
1664.66
421.10
700.44
718.64
807.22
685.72
574.74
369.44
442.97
416.11
656.31
682.04
635.66
843.74
752.19
568.21
542.62
501.70
468.24
353.25
338.96
263.81
308.35
277.41
344.98
1470.72
343.60
343.24
401.38
377.70
415.21
429.57
394.01
459.10
482.51
497.46
562.21
414.34
1246.66
499.31
606.96
612.90
695.08
649.09
588.67
443.79
461.71
404.80
531.59
607.50
571.10
595.36
483.95
376.30
326.79
423.47
426.10
449.74
429.38
377.50
342.09
473.70
316.88
1452.16
773.12
789.68
733.27
533.62
643.07
629.09
746.97
686.52
788.05
732.20
593.29
387.52
491.84
266.52
349.99
299.79
423.59
360.63
341.49
371.10
390.33
463.59
602.67
470.53
311.00
407.85
358.76
318.62
555.12
628.71
692.20
675.09
649.07
536.15
616.01
491.37
541.47
1431.14
479.51
330.10
473.31
433.51
619.64
648.90
598.38
481.15
440.03
509.29
535.32
484.74
1180.40
387.60
442.27
390.24
385.28
337.08
376.13
433.12
442.73
506.87
496.34
472.87
641.16
635.82
523.23
568.21
727.57
631.33
671.28
339.72
361.40
350.18
316.82
344.28
376.33
1229.86
520.61
526.47
564.01
454.08
537.75
550.82
540.83
581.75
768.48
789.35
638.63
452.92
1203.17
383.72
379.14
345.70
469.52
345.50
339.31
243.33
333.95
337.73
358.75
386.93
499.92
576.96
492.42
520.53
679.47
864.44
1035.89
1108.57
1211.75
829.13
434.82
572.53
1906.97
500.97
351.94
301.68
396.43
501.94
577.86
475.50
480.44
422.27
363.63
290.05
372.80
919.88
385.38
367.82
430.96
428.45
458.76
401.84
407.54
406.45
460.26
397.03
476.15
428.24
606.95
554.15
526.57
508.99
623.67
541.78
573.61
523.48
555.32
473.08
472.21
376.37
2895.61
425.99
439.33
434.93
444.70
519.75
475.45
544.31
526.54
425.00
521.46
517.86
505.56
946.52
507.85
397.75
479.36
432.88
461.43
543.48
692.62
842.36
799.00
498.08
366.22
1232.47
387.95
281.39
385.62
429.66
501.57
540.19
538.72
492.53
337.47
324.46
349.29
414.58
1261.83
345.29
382.06
354.02
427.47
411.29
581.08
515.67
565.31
392.40
390.11
443.21
577.53
700.95
573.71
561.61
638.40
391.04
338.19
286.25
314.34
352.92
465.51
445.74
501.71
1220.79
655.55
679.41
615.24
365.84
309.95
453.13
509.34
509.32
615.31
596.04
640.84
444.71
1260.37
457.38
488.35
401.82
329.43
283.21
388.16
398.73
506.34
600.28
615.19
422.82
298.79
357.82
427.90
471.78
503.44
453.34
522.50
503.49
585.23
522.02
616.26
479.22
464.68
1099.84
506.20
453.37
488.55
474.93
443.15
493.53
469.42
588.30
664.15
553.49
628.12
521.56
1416.33
514.57
321.63
328.59
363.18
327.02
306.64
392.57
582.96
601.19
610.22
570.44
456.20
329.17
278.83
309.81
335.82
274.62
223.46
315.55
339.06
402.81
441.23
408.65
495.83
1124.97
539.12
574.03
506.45
508.34
581.65
512.12
490.03
491.77
469.49
588.22
745.51
743.67
1421.14
606.25
581.13
463.23
507.25
525.70
573.73
587.62
609.75
517.19
395.94
260.65
376.13
602.14
519.67
233.84
341.21
325.50
433.41
446.54
494.43
463.20
636.13
664.64
735.04
1379.13
659.10
638.18
618.07
470.29
352.22
383.13
424.05
390.85
659.40
832.43
884.81
590.28
441.72
572.03
282.18
378.15
524.96
458.95
618.72
638.99
748.70
635.76
652.68
567.76
2927.86
437.33
296.13
262.62
283.83
300.70
311.85
407.29
519.62
509.54
550.48
465.85
422.46
956.27
379.70
409.30
512.28
532.87
647.01
663.52
708.93
673.65
659.17
530.82
412.46
427.40
580.46
427.91
451.28
444.90
409.78
343.43
454.81
342.28
404.79
382.89
493.95
386.46
3095.77
397.08
366.55
355.04
405.94
413.01
392.26
450.70
475.84
524.01
534.78
544.95
527.22
1052.39
560.21
395.11
507.99
470.10
465.00
408.96
552.11
561.32
640.54
549.40
545.48
366.49
526.48
393.03
531.98
517.47
566.57
640.99
667.49
561.64
630.03
543.29
481.60
404.00
2914.27
438.62
458.75
432.25
513.83
459.02
496.27
507.44
568.71
531.92
536.97
419.95
503.86
1054.27
612.64
563.36
620.12
494.29
401.50
294.46
414.63
320.14
331.42
439.93
424.44
403.20
509.59
350.32
445.74
417.11
302.54
464.66
668.93
780.36
734.43
508.45
284.43
329.64
2846.26
759.18
704.51
511.58
369.80
291.51
424.50
398.17
364.04
366.66
448.22
446.39
587.00
1097.69
612.31
461.37
434.43
510.11
582.49
464.34
535.59
456.50
511.56
425.37
384.36
330.35
463.19
489.49
442.49
274.14
388.75
295.06
295.51
430.47
479.75
546.54
535.45
501.31
2922.98
566.96
567.85
517.10
572.03
528.48
595.74
444.02
342.79
397.88
409.38
412.99
553.60
1093.62
570.94
427.30
484.58
468.49
490.73
440.33
526.24
540.98
612.09
568.58
645.74
500.53
558.27
421.42
498.10
632.81
686.39
615.52
453.83
324.33
512.31
653.45
477.93
336.60
2892.90
425.25
441.86
445.03
537.87
552.14
562.16
461.28
438.29
358.11
534.49
493.98
572.19
1111.26
544.40
496.94
500.24
307.47
462.40
455.95
580.79
479.24
569.22
496.96
529.98
484.74
557.95
415.27
485.96
529.65
599.09
587.12
604.15
472.51
392.09
305.11
379.02
373.62
2850.10
424.87
527.02
551.09
620.33
555.02
569.56
537.40
447.37
368.78
345.27
356.34
378.22
1009.17
411.81
319.95
420.09
488.02
623.92
865.80
982.45
760.85
496.69
346.88
461.61
1603.82
641.58
449.98
357.09
269.89
299.95
328.36
457.34
404.57
360.21
364.30
508.25
555.43
743.89
455.67
370.90
311.65
290.55
301.23
372.48
346.55
464.93
482.48
536.95
554.21
543.21
668.48
546.89
382.13
465.31
303.47
390.99
417.55
393.45
528.77
644.46
570.02
609.52
2865.96
491.49
515.02
641.94
666.41
718.86
631.55
580.65
322.02
384.12
306.29
366.21
344.97
1248.10
352.89
370.37
361.03
448.83
384.04
516.79
430.63
500.14
508.45
543.32
489.72
463.90
597.84
643.88
643.82
701.37
526.41
472.00
425.21
415.68
504.88
526.03
497.29
529.79
1031.76
616.55
496.40
606.21
397.25
418.97
347.91
381.34
345.12
417.49
413.24
395.81
405.89
1304.12
452.96
522.57
534.96
375.29
430.28
568.44
633.52
619.60
437.11
438.28
402.40
427.29
449.12
320.59
303.73
394.14
339.81
416.19
306.25
397.08
429.30
471.05
530.46
502.91
2762.29
581.36
616.48
489.02
509.74
688.36
597.98
413.05
249.52
364.21
458.19
501.70
462.80
1229.38
548.66
783.86
708.03
439.68
326.00
317.19
254.14
358.02
358.72
485.46
494.69
2866.66
571.79
568.08
520.51
412.98
426.41
413.84
401.29
530.34
518.77
491.71
334.39
345.84
925.37
624.05
591.93
585.06
560.32
526.81
394.22
464.03
399.18
431.46
348.61
291.48
331.30
470.66
367.28
504.17
488.75
482.08
494.16
675.34
711.43
720.10
594.05
596.37
602.30
2882.40
361.08
357.18
271.23
444.40
459.24
500.78
443.67
443.94
372.70
429.49
415.74
384.49
1009.94
371.19
450.99
435.37
533.93
611.48
619.28
692.96
547.24
531.12
482.37
630.54
534.05
616.73
496.01
490.73
484.56
472.30
435.48
502.00
437.47
417.91
327.49
354.28
381.92
2913.23
338.35
381.20
344.50
352.13
353.80
422.79
453.94
556.95
539.78
562.14
645.18
733.55
1168.49
632.39
391.89
387.66
278.02
323.65
325.26
511.39
637.33
765.48
830.99
907.11
2084.90
746.90
459.88
397.79
371.28
354.67
273.51
323.74
309.90
364.43
363.35
397.44
326.08
555.17
393.24
442.24
418.97
481.70
530.22
737.63
530.11
300.76
353.50
344.44
359.06
2846.91
537.73
518.70
493.26
542.06
502.86
567.81
555.78
527.12
501.06
507.92
426.62
487.22
1096.51
528.88
533.49
533.10
382.29
369.65
274.94
460.61
557.65
507.15
561.40
580.53
443.45
563.18
431.68
518.03
520.68
450.34
413.24
403.84
441.93
497.03
424.83
409.50
414.07
2742.49
496.23
381.77
372.32
449.29
509.07
502.42
499.35
464.42
365.51
416.88
499.01
653.29
1106.70
484.85
319.14
291.57
392.31
547.95
467.04
501.20
373.51
384.93
403.71
459.22
425.42
534.41
419.43
434.18
387.18
347.41
338.91
369.47
381.36
513.94
517.76
489.58
532.21
2779.23
614.92
566.76
542.46
511.59
489.35
476.26
401.79
503.79
433.42
524.23
509.02
513.83
1169.05
540.21
401.29
481.40
419.83
493.40
530.46
631.17
702.08
779.96
726.86
529.74
368.79
518.62
439.69
342.98
327.34
519.37
548.36
609.77
371.86
612.26
828.28
574.53
346.38
2610.57
543.33
684.48
800.84
883.02
916.50
886.80
615.14
643.07
651.00
564.94
305.47
2833.74
300.53
409.86
455.70
314.53
326.96
383.15
424.94
448.96
453.54
603.75
526.87
686.53
1133.99
774.91
608.28
537.38
350.24
358.17
380.38
346.01
361.40
431.88
444.99
476.72
2621.14
572.99
399.38
345.41
516.34
372.46
385.94
357.66
453.91
470.50
358.14
391.06
317.73
1356.02
573.80
614.42
521.75
618.56
554.76
585.87
548.35
608.61
571.90
627.41
536.51
540.22
671.82
602.27
444.75
445.03
454.18
514.94
497.93
613.86
528.90
569.49
456.65
495.28
2573.21
620.64
512.75
504.69
438.63
374.71
312.00
412.75
355.98
475.01
481.36
495.94
451.49
1324.03
405.99
476.00
469.48
519.81
525.41
607.02
589.61
600.34
516.50
417.52
385.04
343.85
397.65
414.48
581.10
667.89
641.59
578.15
423.58
511.93
319.09
299.61
380.70
348.63
2631.70
524.42
478.65
516.92
446.14
462.15
426.24
480.72
518.40
445.58
438.81
513.93
406.67
1328.73
678.61
819.39
817.57
747.63
481.91
550.67
700.77
407.94
333.90
424.22
500.33
1691.23
645.71
715.43
506.56
406.11
429.55
345.62
302.54
324.27
301.66
401.86
411.31
454.18
665.55
683.54
642.91
695.44
557.28
468.83
393.51
419.38
324.40
332.63
342.59
481.72
426.85
659.05
543.08
677.82
507.79
459.69
386.36
459.53
390.96
429.61
337.69
357.09
529.85
2678.68
732.76
738.04
652.80
528.14
460.04
406.06
394.96
463.90
484.51
355.84
335.53
396.84
1011.59
605.58
491.14
365.09
312.19
392.46
412.02
565.55
451.14
432.76
373.37
361.14
358.51
604.96
607.12
818.36
721.70
658.75
560.22
533.91
404.77
386.77
390.14
470.31
485.65
1662.09
429.53
462.87
395.59
574.91
496.20
543.72
429.95
441.08
407.82
483.11
520.69
368.67
508.88
409.33
462.39
388.05
438.61
350.60
389.49
375.11
316.48
458.69
495.97
562.56
596.91
652.50
574.85
535.17
429.48
470.36
378.66
458.68
488.53
640.46
527.57
561.68
371.82
2629.58
443.61
568.70
596.31
716.44
657.38
670.02
452.76
404.91
372.39
298.32
362.63
434.87
771.83
458.42
456.98
534.89
540.66
513.85
565.09
548.27
420.51
412.71
430.68
599.82
448.76
758.18
551.14
573.67
400.92
479.52
313.93
407.94
361.19
447.98
469.02
433.46
367.85
441.88
564.10
558.34
601.04
675.24
507.12
450.26
310.83
324.65
317.83
369.00
390.02
390.30
2551.58
578.48
508.22
452.33
428.33
311.05
370.64
457.42
493.41
527.00
432.81
462.70
438.86
1379.04
540.78
508.54
587.02
562.58
563.92
691.16
515.87
496.16
354.51
364.71
586.93
508.93
539.44
481.89
449.98
516.19
593.08
566.14
355.02
359.69
362.50
381.65
386.36
354.97
2542.32
553.85
488.54
511.93
483.73
555.69
550.77
721.59
699.06
716.34
389.91
395.80
282.55
1298.84
418.35
454.78
504.33
499.95
381.70
399.43
389.18
380.43
432.02
349.53
377.88
360.29
449.29
566.96
752.57
759.63
586.46
525.01
332.60
410.45
459.35
640.69
655.18
678.05
2478.45
617.01
395.98
348.90
618.43
764.06
653.28
358.34
358.75
530.77
506.04
555.75
578.19
1411.31
531.69
565.92
557.15
567.16
464.30
465.92
409.74
401.01
436.93
463.60
364.75
520.75
576.34
573.13
389.44
408.93
356.97
465.70
511.13
431.84
400.29
456.84
503.07
639.39
2533.37
781.45
628.86
583.60
519.81
544.38
509.20
525.00
446.00
477.53
396.79
448.28
347.94
1277.14
341.37
387.43
359.50
394.80
450.57
480.15
514.61
536.60
515.51
448.82
344.86
342.55
442.50
478.45
471.46
412.89
342.81
394.78
482.38
611.06
553.61
631.28
508.89
502.94
2492.70
500.45
557.76
594.18
550.79
477.36
483.47
527.87
614.32
623.65
566.73
531.13
413.10
1301.97
454.82
560.71
596.15
681.12
536.07
513.82
437.86
359.49
345.95
388.56
359.72
515.22
630.44
570.22
533.09
498.65
408.75
369.03
328.12
370.17
423.38
506.46
460.39
507.08
2475.14
521.71
543.84
544.45
476.44
457.68
452.75
520.73
519.19
480.56
408.01
355.86
365.39
1306.47
387.16
458.46
492.13
524.35
450.20
451.08
479.17
556.38
447.24
500.83
452.98
482.18
526.95
649.21
711.79
942.03
756.92
456.14
837.24
748.80
373.71
555.76
586.02
600.91
877.45
968.52
1068.81
1130.95
848.28
603.65
336.49
401.16
576.22
584.52
466.67
384.46
489.61
542.67
511.78
476.82
399.40
401.70
511.47
395.46
382.52
386.55
549.06
341.98
2441.20
622.30
356.47
461.07
538.66
600.11
408.27
345.18
414.06
373.42
401.18
416.36
402.36
1350.21
465.95
590.35
507.06
585.78
533.95
557.31
457.07
476.09
485.16
637.20
637.93
560.37
484.99
407.20
446.25
405.66
341.02
393.54
350.24
373.20
467.06
670.29
703.16
763.22
2541.34
606.96
434.67
377.75
358.07
396.60
421.50
464.10
385.47
426.48
351.00
429.18
474.93
1412.25
399.42
539.44
614.71
720.11
523.14
465.03
383.13
426.79
391.94
545.30
511.17
588.52
741.56
709.11
564.18
493.32
413.74
406.44
361.81
394.74
362.52
363.95
338.21
471.60
2361.05
496.97
467.41
501.89
488.35
525.51
410.72
461.40
406.30
491.09
452.06
567.12
503.09
1448.96
580.01
561.17
500.29
452.34
458.98
456.88
430.91
506.43
467.69
457.57
355.51
395.80
482.60
483.60
431.41
506.19
460.07
511.03
559.04
613.31
535.45
597.38
438.52
516.64
2334.84
385.69
344.98
437.90
459.27
485.96
466.68
479.72
462.52
491.11
529.94
467.79
486.70
1390.01
607.09
623.90
529.47
478.93
528.37
337.44
385.68
357.59
303.60
505.47
733.54
808.86
643.21
556.98
1329.10
1234.36
825.63
353.82
385.05
450.19
575.22
842.46
916.58
904.63
807.41
788.43
697.72
640.79
483.54
449.60
419.09
539.28
544.69
463.77
408.89
461.80
911.25
560.36
408.21
424.07
388.00
356.62
404.65
502.54
613.27
685.70
631.72
568.21
418.38
467.05
414.19
362.93
386.88
333.25
372.02
405.16
349.62
485.64
504.63
489.61
380.47
2461.15
507.28
590.59
542.78
593.61
675.43
854.31
838.90
774.88
444.82
430.78
435.60
657.91
537.12
401.81
433.28
432.40
343.61
358.99
328.00
444.62
571.12
687.11
504.35
470.38
2445.96
442.30
464.14
474.74
471.29
484.77
546.45
524.27
560.32
624.26
563.23
513.76
383.12
1410.94
327.70
339.47
325.44
452.71
549.26
505.12
485.03
537.59
478.27
605.66
551.11
578.00
553.88
556.81
547.88
783.68
814.99
700.21
516.74
436.66
731.83
571.20
364.64
498.57
1677.35
510.08
397.78
429.51
413.03
474.94
457.04
518.59
464.30
531.49
489.01
493.65
531.27
717.62
601.29
567.39
511.22
623.75
502.56
462.51
464.61
411.00
396.79
420.51
685.20
776.38
990.09
732.98
452.10
517.82
755.24
678.50
344.64
538.46
567.75
783.50
708.68
666.73
1717.64
547.01
458.55
525.26
447.92
419.38
450.99
428.98
397.20
312.54
349.64
455.52
465.28
607.70
488.34
539.20
535.89
553.97
514.29
503.66
527.70
568.54
433.26
461.71
392.01
454.30
543.19
524.36
411.77
392.63
406.44
458.87
434.07
548.57
623.68
644.01
689.75
626.87
2311.20
479.83
456.80
582.08
561.64
575.31
530.58
519.83
376.65
378.45
309.01
372.97
399.16
1400.97
454.32
365.38
373.89
506.77
468.14
559.54
508.49
507.80
406.76
458.27
409.57
428.93
491.67
492.04
452.72
513.54
475.76
464.13
373.11
512.67
430.83
444.96
472.32
362.46
2321.12
467.67
576.29
674.81
631.72
662.51
510.29
485.86
404.16
394.98
382.01
428.44
358.92
1430.64
526.74
567.98
541.56
606.42
535.45
549.31
528.52
502.26
427.49
554.46
540.06
640.12
805.63
885.46
649.58
586.87
507.98
527.39
465.13
403.92
381.93
384.29
441.43
467.79
773.97
369.78
387.25
437.72
366.63
323.73
365.51
411.14
401.65
498.18
490.33
475.85
469.75
659.26
540.67
510.24
482.58
436.40
353.72
409.98
430.15
608.10
644.26
670.14
616.49
2254.22
530.25
606.83
665.96
625.43
478.65
515.00
457.72
496.29
392.38
361.94
354.96
351.86
901.53
544.61
569.39
645.91
594.18
579.71
420.79
426.58
393.52
387.39
396.82
465.62
468.31
555.32
533.63
544.42
524.00
621.41
568.26
639.73
563.75
544.03
473.31
431.31
440.37
2242.64
639.05
766.74
690.63
782.97
465.86
475.76
418.21
386.56
447.13
549.09
508.14
762.96
1138.13
596.33
463.64
419.60
363.06
353.93
451.22
401.30
361.40
482.01
606.13
1090.71
965.22
825.40
547.17
380.03
452.30
485.50
578.75
638.13
562.65
618.60
568.35
715.96
803.54
1104.96
763.13
583.28
365.22
921.29
1120.58
877.57
598.24
400.90
352.38
352.65
432.16
521.06
383.40
368.16
396.17
366.16
361.30
430.48
429.94
458.19
457.02
531.92
527.06
2288.62
574.06
627.62
578.45
569.82
556.66
619.57
535.33
548.73
612.53
661.84
657.93
652.63
974.63
449.71
372.24
418.89
490.58
666.16
545.00
585.09
470.84
405.37
355.73
660.62
612.38
497.21
407.36
425.48
402.82
605.83
722.82
754.69
558.50
495.13
496.87
435.26
412.08
2203.75
406.47
364.24
410.51
409.10
377.66
503.04
450.50
464.81
359.40
415.02
414.67
453.34
875.69
450.36
542.87
573.73
490.18
599.09
491.29
470.90
485.96
489.89
459.39
477.63
417.01
688.27
703.92
818.93
624.83
643.23
559.48
649.61
736.86
682.60
562.90
543.45
458.58
2150.10
357.72
426.14
361.00
370.90
336.37
357.50
371.07
424.81
386.23
444.44
369.57
470.04
894.25
443.54
467.90
460.28
428.38
493.32
501.60
545.18
489.13
549.22
491.41
544.26
618.58
903.35
803.46
809.91
733.98
547.60
427.89
347.93
380.42
383.32
347.38
397.88
371.08
1428.36
454.62
473.38
549.54
621.57
629.40
625.24
509.78
449.37
302.65
464.28
456.39
553.13
697.97
549.44
567.50
513.01
505.67
733.49
732.65
582.68
474.84
530.23
473.44
586.85
509.92
572.52
392.19
373.12
389.93
453.61
483.34
509.29
574.40
574.73
543.68
401.99
424.74
2134.69
449.66
525.41
473.43
499.07
417.09
501.12
639.02
829.21
576.59
490.14
339.96
382.50
615.42
494.51
451.53
468.15
443.27
560.33
519.13
588.20
529.49
548.10
478.47
453.83
400.81
668.37
572.74
715.82
527.39
486.53
371.78
457.93
302.93
484.32
439.55
430.96
331.78
2134.38
558.14
539.43
309.06
604.01
423.51
356.84
490.61
638.01
599.94
601.76
521.62
552.67
1109.46
709.21
644.01
694.52
577.60
610.48
540.00
598.72
456.31
388.41
436.20
472.20
372.20
473.65
361.49
508.95
418.07
431.44
572.16
564.73
558.49
571.12
438.62
439.97
436.25
2157.02
382.52
414.69
469.83
519.57
606.50
586.55
681.12
703.86
586.26
561.07
566.47
522.81
904.95
457.18
391.74
358.00
381.79
525.02
387.22
437.90
472.93
505.02
467.47
512.11
473.02
632.27
482.71
529.64
443.22
459.68
454.48
584.66
471.97
559.32
420.01
496.36
479.34
2072.08
609.89
522.57
507.37
482.36
500.81
465.40
523.69
550.42
646.96
772.23
804.49
676.70
783.40
647.31
532.77
444.01
597.35
518.13
372.92
538.71
652.68
557.32
438.42
437.62
2088.68
544.71
478.28
540.89
496.90
527.91
573.45
617.90
738.96
652.34
376.65
336.87
344.97
1398.32
348.58
374.19
413.32
398.01
392.80
362.18
443.23
468.30
753.18
838.51
532.64
498.00
316.04
379.12
408.60
478.83
560.50
634.31
590.60
512.71
404.93
464.04
450.37
454.33
1753.38
524.46
577.93
550.85
505.78
500.61
433.81
401.79
343.09
422.20
349.74
354.34
358.97
588.28
478.29
634.17
614.28
615.53
392.34
473.40
552.73
613.73
634.89
639.31
615.92
625.12
710.21
592.36
372.55
340.16
470.86
576.21
588.69
635.90
509.30
402.48
378.75
451.13
2027.30
610.28
575.91
553.02
444.72
337.02
342.00
543.02
449.82
485.57
491.22
514.74
482.81
1508.65
419.63
575.72
440.99
466.95
462.91
477.09
603.27
680.70
596.14
643.26
438.48
354.19
414.87
410.96
323.58
422.63
538.62
503.93
502.41
598.33
455.44
515.28
528.35
491.20
1981.44
574.10
529.59
517.34
590.62
610.49
629.00
737.87
646.65
754.35
576.31
497.57
405.41
1479.97
453.05
594.34
400.40
420.56
447.56
423.30
414.96
386.21
432.51
443.28
369.36
438.34
631.08
703.53
603.17
646.01
550.53
586.34
606.08
653.90
556.99
634.37
544.08
466.18
1932.70
358.46
379.11
450.62
446.55
492.67
458.19
429.91
433.59
417.62
430.30
458.43
478.75
1453.64
476.54
626.55
501.13
525.71
479.75
510.98
360.18
451.86
580.43
663.95
543.61
465.99
443.93
492.41
459.76
601.14
602.53
668.15
518.06
584.20
424.82
360.48
347.50
417.88
2027.28
354.56
301.19
371.88
332.35
451.80
431.09
404.46
480.16
515.14
408.69
452.16
417.77
1442.63
505.15
539.52
452.03
513.68
442.23
420.47
521.98
818.84
719.21
646.29
605.21
525.41
483.98
616.92
601.74
673.25
419.65
387.09
334.43
455.62
557.60
720.03
716.32
785.84
2056.05
678.44
452.91
514.84
589.47
583.46
617.97
733.31
542.84
425.36
720.35
1347.62
1108.34
659.02
433.21
609.65
649.17
697.63
652.55
589.64
521.33
388.73
375.66
493.89
558.60
1940.16
548.44
449.67
386.73
438.60
377.25
371.18
429.54
503.81
468.00
550.45
535.38
586.41
1138.35
740.76
747.15
744.30
614.84
454.88
350.87
345.73
320.44
427.98
342.88
530.96
502.96
707.90
642.14
590.14
388.42
399.58
421.09
535.16
413.08
482.68
453.66
472.54
457.22
2004.14
573.63
661.83
555.04
575.63
401.82
470.65
525.91
592.85
466.43
503.28
435.61
398.67
859.46
465.61
448.15
424.67
328.24
371.85
387.75
488.68
440.91
525.66
359.22
307.24
345.68
336.16
314.79
389.47
425.01
553.45
647.06
628.92
429.06
327.89
450.47
652.31
722.25
2195.15
728.42
615.19
502.62
558.50
588.09
549.50
442.04
337.14
313.34
361.44
430.72
385.41
814.08
411.76
336.30
402.79
381.32
444.16
390.44
463.98
437.84
454.82
510.27
721.43
690.63
955.62
725.92
506.81
274.12
371.06
308.26
519.06
636.20
743.32
653.80
519.02
444.46
1981.61
639.98
688.60
528.93
576.91
427.33
492.43
486.75
542.89
480.07
541.13
522.60
641.40
1154.16
596.10
537.26
452.85
375.17
354.21
319.10
421.28
411.45
422.78
451.52
610.41
681.96
815.44
711.92
637.92
469.88
517.66
415.39
452.27
319.00
288.68
290.91
320.33
356.32
1425.58
406.17
477.89
466.33
618.94
493.84
613.76
785.32
859.52
619.70
440.87
294.14
327.60
422.94
472.10
500.11
594.43
564.21
551.24
472.94
516.42
536.71
507.03
403.28
464.18
1772.84
514.42
523.49
525.39
456.16
495.56
491.91
450.11
327.44
294.82
515.83
580.70
584.42
1510.66
420.30
368.53
332.24
352.80
388.55
485.95
463.72
529.09
497.68
641.18
653.71
665.43
813.88
841.37
785.13
846.94
719.02
433.14
335.38
416.80
319.27
292.18
354.21
347.07
371.95
267.21
380.93
341.14
446.95
522.00
533.20
619.10
564.25
685.52
611.00
542.14
1861.23
347.55
391.11
434.13
442.14
631.38
662.18
700.80
775.05
559.52
346.38
381.59
318.33
1482.00
377.54
446.05
416.08
444.56
514.02
643.68
720.30
770.28
646.12
446.76
449.85
1942.64
327.95
493.90
457.33
407.88
493.74
758.42
600.20
614.39
363.10
251.50
356.40
494.23
969.51
509.01
586.84
651.89
589.39
609.64
489.16
521.79
491.77
450.79
414.17
486.08
484.16
735.77
652.05
700.19
574.82
481.01
436.48
300.28
297.24
285.75
285.44
364.04
385.32
1855.00
551.44
661.11
581.00
405.36
431.89
605.31
622.63
603.60
575.83
515.44
550.93
474.13
1019.79
570.66
520.07
647.22
619.72
441.68
393.73
368.56
346.48
358.22
314.82
409.19
413.85
640.40
539.74
548.77
500.22
497.64
394.84
388.28
372.19
371.56
383.83
370.63
402.05
1791.33
685.84
718.64
453.48
272.71
328.69
395.89
530.07
735.06
775.66
856.86
691.39
626.06
666.18
440.98
311.72
389.87
346.62
348.85
336.36
497.41
410.75
476.75
362.56
317.39
329.25
534.28
364.75
413.97
429.35
510.69
437.64
506.92
496.88
552.20
604.69
687.94
529.08
1850.63
362.45
332.15
386.70
603.18
584.36
594.83
517.11
439.32
345.98
380.84
351.14
336.68
965.43
498.45
458.63
607.44
571.35
518.92
463.20
480.26
507.13
583.50
565.06
688.89
648.47
830.16
648.80
530.63
312.95
320.61
285.51
347.35
366.84
343.44
403.59
432.63
566.89
1532.58
547.01
437.71
342.99
287.96
415.84
548.82
644.45
735.48
661.35
562.35
542.82
378.00
609.68
605.23
505.19
485.28
446.74
472.69
345.25
331.17
378.24
391.21
334.30
446.48
425.05
670.20
519.07
607.31
572.33
501.24
436.22
455.34
410.97
491.31
360.23
418.65
376.76
1716.62
576.19
626.81
600.37
527.56
265.73
344.50
376.83
469.68
538.63
561.42
582.97
646.28
1123.22
631.85
433.59
308.77
382.18
338.38
369.76
576.06
625.51
662.22
552.31
486.25
480.33
517.10
380.87
452.73
372.29
322.72
321.31
306.96
403.59
478.71
352.84
469.48
467.83
1695.72
397.14
383.84
589.50
724.62
672.13
661.35
561.35
604.29
612.41
549.21
365.49
346.12
872.90
388.46
322.85
408.82
538.20
691.48
674.75
612.43
398.15
451.56
424.45
339.57
351.58
635.17
517.51
509.41
507.23
628.55
681.20
729.72
632.00
549.23
449.66
377.84
347.48
1577.01
514.95
624.35
624.30
773.91
563.67
672.06
529.60
620.60
615.64
583.96
399.51
510.99
843.13
301.79
383.80
358.12
434.78
481.84
486.32
498.80
425.93
504.18
442.10
380.79
405.94
387.56
289.23
387.93
309.77
442.77
349.23
420.74
482.78
409.51
499.23
526.32
476.70
2946.56
629.87
507.26
520.92
663.09
634.32
581.54
444.68
451.45
401.06
281.30
327.33
313.87
950.62
501.61
503.59
684.57
636.32
671.62
529.59
558.75
506.31
441.35
359.63
395.23
429.00
570.39
355.46
426.28
471.06
481.53
425.35
557.62
601.48
726.18
635.76
530.23
420.11
1603.86
441.00
592.27
530.77
677.64
742.47
674.44
446.24
451.51
444.55
393.44
310.15
298.66
896.51
472.53
553.42
612.57
688.41
707.31
661.08
438.63
306.45
457.73
296.48
331.10
370.63
592.01
481.37
518.35
318.46
326.80
295.54
347.64
233.91
356.39
455.64
613.39
718.91
2971.52
834.46
987.31
958.24
882.21
531.36
363.97
366.25
315.14
417.82
391.28
367.56
1494.70
365.14
393.82
383.53
456.83
516.48
595.95
641.56
750.66
797.47
593.77
360.00
388.78
646.98
291.53
331.43
443.84
463.41
449.75
515.16
710.55
623.34
663.93
559.92
599.87
498.13
556.27
479.59
636.62
524.36
532.24
430.41
474.63
407.32
503.69
422.66
529.19
340.87
3037.31
370.18
422.21
315.89
447.34
452.54
575.72
572.07
611.11
332.79
368.84
442.18
459.69
821.57
453.36
585.12
524.07
545.64
465.69
497.46
540.84
406.76
312.65
433.41
439.40
266.06
408.27
373.47
441.23
388.11
456.56
417.97
351.84
354.43
384.80
404.01
519.59
497.86
1615.40
603.92
632.95
529.14
549.48
441.19
257.00
307.00
453.49
483.24
579.77
639.70
808.58
1117.93
681.66
484.44
402.35
376.32
382.53
372.73
481.83
438.25
449.83
449.28
505.82
1419.49
574.94
614.25
693.58
522.86
468.11
453.47
599.38
596.19
521.45
580.28
799.57
811.58
1004.60
459.60
315.14
472.57
410.91
356.00
324.66
236.21
387.23
321.58
429.13
484.71
2972.30
626.84
691.83
564.71
634.81
510.75
459.18
448.26
420.06
314.61
339.35
371.39
447.47
1123.90
772.01
851.77
873.40
734.76
435.14
567.38
334.62
359.79
631.36
765.73
920.14
1740.57
812.28
607.31
508.92
385.49
438.69
335.25
298.11
246.53
355.01
306.66
327.73
1465.59
350.08
361.82
456.22
490.97
462.91
373.31
448.35
452.83
577.51
552.84
494.44
431.72
1513.83
527.36
461.82
509.16
637.71
652.93
628.09
481.85
558.68
579.35
520.25
438.40
532.34
460.83
359.07
374.19
631.76
525.96
545.79
421.56
377.74
473.96
566.76
526.03
449.03
1059.09
451.52
375.00
448.47
432.58
426.73
381.43
396.51
460.71
508.90
496.00
577.74
535.07
1568.05
627.76
614.52
486.05
459.07
381.74
448.96
369.04
468.41
519.26
629.58
500.96
330.60
371.26
362.27
332.35
652.09
566.81
531.24
451.59
516.80
472.28
543.90
426.11
452.23
1138.73
607.02
556.94
523.26
472.01
521.19
461.86
580.50
576.11
647.97
593.81
583.86
526.18
802.52
459.86
364.86
387.86
311.51
412.21
476.00
489.64
623.86
486.91
552.36
577.20
691.82
684.93
678.09
509.61
353.30
379.06
493.95
367.57
379.07
397.82
323.36
378.74
553.98
1277.46
751.19
610.34
599.43
570.96
569.40
491.27
545.03
485.38
557.50
495.35
488.64
352.53
1446.39
361.09
403.72
423.56
438.70
498.58
536.93
487.03
436.25
258.45
368.82
372.24
383.83
500.08
451.80
532.26
589.29
566.73
543.73
472.21
528.24
491.06
611.06
595.44
643.46
1020.60
370.67
270.38
399.74
498.51
570.68
658.45
701.81
715.63
804.10
725.27
767.36
606.95
603.41
362.10
431.95
298.71
339.93
352.57
531.04
534.67
407.18
307.96
429.08
589.97
427.16
343.70
368.72
503.66
550.69
596.88
695.66
592.33
505.23
364.42
335.33
271.52
496.27
1057.64
674.66
823.36
742.93
449.50
352.05
313.84
278.41
273.80
364.74
441.39
551.61
460.90
827.60
565.93
561.00
556.97
509.12
375.12
439.58
496.64
585.13
487.54
557.89
451.04
330.85
468.84
751.67
813.81
721.49
621.12
472.65
363.79
495.56
495.49
636.00
597.49
588.51
1078.19
495.50
465.22
587.50
608.41
561.61
304.95
561.22
482.48
336.89
378.99
328.56
502.32
990.65
736.09
721.23
458.61
417.02
309.65
365.47
395.85
474.68
396.25
440.33
450.00
517.13
594.05
520.18
410.03
478.82
408.00
367.44
514.01
541.57
477.21
480.63
451.02
490.49
1028.93
484.21
560.54
561.48
544.42
582.28
534.70
425.34
386.31
420.84
337.94
457.24
389.29
833.35
458.38
476.48
536.19
543.45
447.07
356.17
247.00
378.80
532.96
602.81
519.34
507.96
587.50
620.17
607.24
528.89
548.27
528.71
463.50
525.54
462.09
438.09
329.96
409.55
1099.31
522.17
454.31
520.46
447.60
503.83
371.11
528.43
488.08
553.50
359.84
468.28
470.58
850.63
522.33
601.24
520.38
568.76
447.83
565.41
495.95
672.50
599.34
577.11
391.94
582.13
484.27
362.85
425.37
517.91
426.95
546.27
493.27
469.99
476.02
573.15
576.76
434.59
1004.53
482.25
327.62
382.52
547.85
752.00
860.34
968.84
615.99
430.59
331.38
364.76
378.82
445.89
291.26
330.90
346.19
504.83
593.37
748.95
596.35
504.08
371.47
394.23
441.13
2946.64
572.70
603.05
698.92
644.55
559.99
417.31
456.84
558.29
356.59
313.04
412.78
535.26
1102.18
332.48
385.80
522.37
661.29
721.82
656.97
653.92
647.72
613.46
561.54
536.64
519.34
585.29
474.44
413.54
482.09
646.26
523.32
670.70
620.16
660.66
518.96
642.22
519.52
2803.69
447.86
347.54
302.62
518.72
522.56
483.22
365.11
424.66
455.76
594.42
498.55
566.62
1134.06
595.59
423.19
447.63
291.38
314.82
340.97
461.11
417.10
301.34
333.31
457.50
422.44
467.97
352.67
577.42
539.46
538.57
463.70
558.92
399.78
441.13
409.30
412.15
416.53
2993.72
470.40
444.81
413.11
515.31
477.23
522.55
481.97
555.66
519.49
560.93
567.94
587.21
1143.89
751.47
618.00
543.15
366.77
292.41
383.37
446.16
351.36
487.31
433.93
461.42
420.20
526.78
526.34
608.41
611.46
728.09
592.01
433.44
391.26
669.61
567.02
327.70
371.33
2830.78
502.08
654.00
630.97
685.29
554.28
565.92
533.88
587.22
484.45
414.10
372.17
475.58
999.79
492.49
512.61
601.67
532.93
466.25
429.88
415.75
437.36
347.31
427.09
510.87
560.65
657.83
515.04
439.78
290.66
276.20
451.14
632.48
583.08
550.20
464.30
440.29
437.58
2996.29
433.95
473.52
375.36
436.27
408.98
421.96
369.84
428.26
432.65
470.35
383.13
388.29
1054.29
574.90
558.19
649.36
575.71
595.36
551.84
495.76
421.44
447.69
288.22
371.61
455.29
583.89
546.02
552.71
524.64
523.99
468.76
563.59
676.74
716.83
639.67
656.53
654.43
2710.93
658.99
583.28
513.99
463.57
449.09
470.69
445.34
474.34
376.31
304.95
260.88
251.44
876.86
428.62
389.97
481.45
393.82
512.62
422.57
279.63
363.63
309.11
342.26
639.60
803.66
969.45
631.73
678.69
375.26
386.46
326.40
597.75
644.79
665.74
477.34
511.89
409.89
1544.77
413.51
425.11
392.41
420.82
436.45
431.03
353.27
364.14
400.91
464.75
455.90
457.23
621.24
723.85
744.14
785.00
470.23
450.03
365.22
297.62
407.20
450.37
403.53
497.90
2817.60
478.16
405.65
597.02
605.66
646.00
551.10
578.46
486.69
490.22
466.42
525.57
411.55
836.46
520.31
502.97
497.82
444.33
411.19
435.82
315.42
386.88
307.71
500.68
428.37
431.94
505.98
511.34
337.24
465.95
445.54
568.72
515.35
609.39
498.60
589.55
809.99
1118.21
2036.67
661.57
334.96
392.98
439.12
359.70
371.06
462.83
353.67
426.61
298.82
450.45
439.33
562.78
412.68
417.42
379.54
368.57
293.91
393.82
449.11
445.16
435.28
426.97
418.05
2803.13
442.62
535.38
554.27
557.96
485.90
507.06
446.18
462.41
439.90
488.86
547.97
640.35
879.31
560.07
393.36
433.71
392.05
472.01
440.05
487.35
594.31
529.25
530.16
504.99
436.64
609.85
468.68
515.48
507.02
584.11
525.31
678.01
586.98
486.73
390.47
419.97
262.66
2722.93
460.28
454.69
524.22
574.89
543.06
510.85
489.57
519.37
457.43
514.31
446.88
467.25
1051.60
436.16
448.69
412.68
379.88
449.38
416.89
419.22
360.00
426.58
440.51
507.59
416.51
625.37
459.46
616.97
593.54
774.91
606.39
645.62
406.49
329.82
327.99
404.65
353.82
2712.48
531.28
588.89
543.83
571.28
454.73
520.34
480.38
473.79
475.25
515.85
495.30
509.34
873.84
593.68
451.60
468.74
431.38
413.33
351.24
439.04
268.38
373.92
492.28
482.04
481.16
658.65
505.81
556.20
543.66
680.14
802.63
914.98
857.76
717.65
408.17
1103.73
1386.21
1202.14
314.27
512.21
658.04
877.75
923.17
848.65
597.69
525.77
429.88
382.77
311.29
454.03
407.24
454.66
290.24
380.96
310.95
452.86
487.96
593.70
426.97
380.20
377.53
2908.35
370.39
558.07
447.08
581.74
464.50
649.92
624.18
686.89
675.19
699.76
369.93
406.84
1111.78
396.77
532.03
738.58
680.13
541.45
504.46
501.44
517.01
538.85
394.08
428.17
389.83
395.26
339.58
398.94
462.75
502.99
533.67
536.25
516.03
610.30
440.01
563.03
575.42
2677.68
627.37
726.29
669.14
782.71
611.06
494.15
357.40
323.38
339.67
332.22
335.44
329.57
823.67
400.17
297.37
354.84
359.27
431.76
472.10
532.54
476.71
522.98
441.58
578.41
591.82
783.13
476.29
590.86
527.70
516.70
443.52
396.91
327.02
370.03
485.03
674.02
644.02
726.97
535.32
366.30
370.96
399.92
495.67
564.21
527.31
545.55
572.39
683.66
504.49
414.13
2778.22
371.79
331.12
526.95
440.93
447.12
361.14
565.32
462.87
483.08
384.76
396.75
341.87
812.44
437.36
459.81
437.15
567.91
454.96
743.11
723.48
485.73
409.87
526.51
471.77
449.34
462.63
446.83
275.29
368.82
476.02
397.88
398.68
626.76
717.59
710.64
656.97
525.02
398.26
465.62
336.81
493.51
670.52
860.40
743.87
864.84
691.45
583.39
357.53
435.02
602.93
929.86
400.66
795.06
856.14
1070.90
764.59
568.53
419.13
386.64
620.37
1039.03
739.83
1641.86
350.78
438.05
495.65
546.09
557.18
499.31
430.38
412.13
303.68
368.50
468.41
579.73
620.88
622.59
656.51
635.91
404.99
331.14
381.81
374.70
361.21
367.94
469.56
632.44
2561.74
874.78
829.26
691.99
553.08
430.17
269.11
419.21
322.99
355.14
481.18
661.46
685.19
659.40
354.96
348.31
391.07
404.63
308.24
424.79
428.84
485.06
372.88
390.10
399.90
2644.03
491.32
511.96
533.41
536.00
535.64
575.06
637.89
711.96
720.56
749.42
507.97
570.42
732.07
410.23
352.90
438.86
432.94
505.09
422.98
519.47
402.18
461.99
398.30
468.47
419.92
654.21
361.09
476.59
476.16
576.32
539.09
629.59
535.36
550.01
469.32
431.93
355.50
486.49
484.38
511.86
445.44
472.98
380.82
395.53
392.06
473.54
460.99
532.59
448.39
525.20
2577.98
531.33
395.43
515.02
452.23
594.60
554.84
618.19
462.48
485.84
412.13
359.33
335.42
772.47
425.07
418.17
423.92
440.23
434.16
526.43
483.22
567.51
476.77
615.54
540.75
582.54
691.15
664.18
492.39
477.96
360.96
499.62
468.78
584.46
511.70
584.89
582.86
651.05
579.99
616.72
313.90
304.19
391.44
307.52
380.38
423.33
450.24
539.56
462.93
439.92
347.49
2598.10
378.42
461.68
567.65
732.81
662.55
612.02
384.28
366.70
392.50
324.42
427.06
593.69
1100.40
741.21
502.82
565.20
452.22
412.54
454.43
408.08
376.93
464.13
367.54
470.56
400.85
456.27
409.89
532.68
452.23
515.75
586.91
561.65
567.22
519.45
476.15
480.62
524.50
2567.87
751.06
545.23
408.93
585.04
795.72
407.05
364.69
381.22
529.37
749.48
740.29
643.36
967.72
572.65
387.82
353.01
385.23
642.87
686.05
636.84
401.52
352.19
394.70
406.22
384.96
496.27
539.50
578.74
566.18
665.61
588.55
638.09
531.81
442.55
333.59
378.30
442.15
2537.40
432.38
394.18
353.18
373.26
381.52
436.11
318.50
421.23
521.45
548.31
618.20
647.06
1049.99
555.00
503.56
428.90
405.47
438.94
508.28
521.39
347.30
459.09
416.68
522.00
467.70
666.01
480.20
431.21
403.24
481.25
308.17
398.12
492.44
521.81
481.61
440.97
489.89
2588.15
472.73
520.73
437.90
524.96
333.21
407.21
332.20
433.45
591.84
622.39
556.36
704.48
1109.27
682.16
589.79
626.78
551.02
453.21
340.62
425.88
319.97
403.99
461.44
639.96
565.33
626.55
574.43
568.80
416.82
485.99
372.48
431.98
358.53
502.04
418.62
398.51
372.35
2535.10
481.51
576.55
525.05
507.98
559.94
723.65
617.09
395.69
500.96
408.69
298.46
435.98
796.54
554.16
552.85
816.75
860.80
892.96
444.32
435.92
601.58
369.46
305.68
469.75
881.59
521.67
539.11
602.68
500.76
599.44
494.74
457.61
420.95
520.62
490.31
478.86
418.30
597.97
511.13
543.45
425.40
475.28
407.29
450.45
305.74
425.65
495.57
745.96
724.39
2632.16
563.63
423.76
349.00
348.01
397.75
572.37
426.28
389.30
320.04
591.82
721.55
758.26
802.14
578.85
390.04
392.57
482.00
369.53
395.33
416.00
411.24
470.01
421.65
447.67
2501.35
525.00
469.65
456.12
436.07
471.58
405.20
499.79
483.02
576.32
497.03
587.20
534.24
1001.28
546.76
556.90
554.73
615.64
464.88
421.52
462.65
495.29
472.64
532.48
451.97
417.40
396.89
483.21
547.85
614.66
330.82
395.74
429.63
528.48
477.18
456.26
414.86
464.16
2435.18
659.79
628.41
616.64
539.57
440.91
374.46
388.65
366.73
374.48
414.61
472.78
506.21
1034.51
550.49
487.12
462.63
606.89
537.14
527.77
320.22
332.54
412.88
563.74
466.87
365.43
405.30
361.03
412.93
544.99
527.49
568.87
426.99
457.40
531.72
650.96
543.36
588.88
2458.81
491.55
480.01
433.07
496.57
496.16
550.23
490.49
381.80
463.77
401.42
545.63
464.57
880.17
371.48
349.20
426.40
878.45
868.69
787.78
496.55
447.43
400.00
393.66
398.45
810.46
417.65
613.97
606.75
613.05
497.84
443.87
367.79
456.80
452.33
541.06
452.91
433.75
471.06
560.54
372.27
441.21
487.62
652.61
666.56
668.01
565.34
628.86
552.15
558.41
2323.50
616.88
535.83
575.04
515.95
517.59
414.64
414.70
417.62
291.34
441.09
540.80
661.13
1124.16
638.31
499.20
408.38
354.97
385.87
428.34
404.34
572.05
483.44
504.64
542.71
539.04
557.03
528.07
398.95
451.78
409.82
460.69
456.42
484.46
365.52
429.71
350.39
452.79
2263.21
642.37
664.83
748.37
614.85
496.41
381.21
463.97
471.84
449.96
381.23
389.02
337.17
733.85
385.90
468.87
362.43
444.30
566.71
598.33
712.17
759.97
518.53
404.93
424.16
454.52
486.91
453.15
366.72
505.87
515.63
566.57
627.89
682.99
625.90
595.15
430.05
458.84
2299.57
500.04
486.89
586.73
549.39
629.03
474.66
458.53
452.60
442.58
414.10
474.21
423.82
864.99
443.25
372.51
371.67
554.42
507.56
548.57
483.60
478.19
380.72
535.15
510.94
581.97
628.08
580.75
422.82
557.60
631.02
549.27
412.84
756.58
428.81
456.59
512.86
585.54
2266.90
636.08
661.51
750.14
832.97
1097.87
1059.27
1007.12
613.31
449.97
858.10
919.89
1177.53
339.11
336.29
406.75
462.52
549.46
413.52
519.77
543.69
639.74
486.89
488.98
2261.70
608.01
457.11
516.21
513.41
590.48
592.80
607.85
511.42
480.28
472.44
569.34
495.98
1047.34
457.72
474.10
500.21
573.46
464.43
504.80
504.76
569.62
590.56
657.21
478.01
461.45
365.55
480.20
415.90
373.42
340.74
545.31
394.80
475.10
401.85
480.58
410.63
479.34
2312.90
557.28
364.69
433.44
421.49
472.92
420.30
591.64
606.03
659.94
617.50
672.15
628.05
1141.53
473.35
358.57
339.75
453.49
481.19
664.65
658.65
720.19
643.77
700.67
537.48
482.85
557.83
650.06
655.02
531.95
406.47
386.37
353.97
364.04
348.05
416.88
375.46
408.86
2269.74
533.04
517.76
567.24
511.86
584.33
547.04
464.88
460.27
602.90
529.17
597.37
471.36
974.55
479.14
453.20
387.72
352.24
396.78
404.64
327.48
428.69
463.38
583.53
527.67
700.58
759.93
602.24
368.24
373.18
469.30
686.61
762.43
826.41
536.88
414.86
366.47
432.65
2290.57
577.11
543.75
528.58
465.64
472.06
387.93
431.19
411.30
511.74
474.20
568.24
436.16
968.59
550.65
706.73
550.96
525.73
488.08
455.84
365.99
422.75
356.09
457.50
393.75
478.50
464.98
515.02
495.44
540.31
491.42
600.35
518.42
586.19
542.62
616.72
541.34
478.22
2217.41
565.71
482.88
421.71
429.61
415.00
345.62
400.98
373.20
489.09
377.42
485.09
426.83
972.89
467.69
520.61
580.17
683.36
665.73
688.87
558.17
514.31
398.41
500.94
491.32
542.14
679.45
753.99
526.55
533.36
417.13
339.49
375.90
413.12
390.25
461.24
434.27
522.21
2193.03
667.02
475.90
425.48
436.79
491.03
501.02
546.34
621.26
678.80
482.29
415.96
358.82
785.18
373.52
493.73
464.11
465.15
564.46
616.39
593.23
698.79
687.96
694.38
603.50
699.19
724.34
720.53
543.98
665.58
679.96
736.38
563.80
420.06
340.83
388.34
372.00
447.53
2208.06
505.57
389.43
382.73
317.25
507.89
451.73
537.69
416.78
401.35
382.36
334.35
404.28
846.27
430.88
452.63
556.07
615.80
502.38
551.84
439.00
445.83
513.79
504.85
450.02
482.14
534.10
452.18
419.45
472.34
498.33
527.68
460.39
525.93
474.68
425.62
500.27
717.61
2173.38
933.87
733.75
611.67
381.93
433.85
291.48
389.00
433.05
397.52
369.00
415.22
475.24
887.05
725.09
868.47
717.19
750.26
744.70
764.05
714.69
658.37
540.52
532.19
372.91
1776.43
437.13
450.45
355.39
560.72
697.92
699.74
558.84
352.50
444.92
498.80
471.11
606.77
751.08
697.88
571.51
614.88
472.75
476.27
369.43
451.82
480.87
546.80
477.09
516.78
2190.85
483.63
485.02
493.86
446.21
582.84
567.14
532.92
573.54
540.70
397.64
362.83
443.29
907.26
477.56
541.00
491.68
526.80
538.81
650.26
649.64
733.21
567.58
569.54
433.33
386.22
449.66
557.43
527.42
434.07
303.67
427.59
378.92
537.52
515.94
745.80
745.45
811.36
2190.62
429.32
417.10
389.54
369.90
451.61
376.43
630.29
628.87
704.63
534.94
441.12
475.28
1096.64
861.94
937.20
796.84
878.78
693.70
571.65
408.20
373.77
352.40
431.71
481.20
609.23
358.85
367.93
380.95
485.28
423.44
383.31
448.88
405.98
432.47
545.20
406.06
468.32
527.49
430.23
490.14
568.25
513.95
688.35
612.33
624.89
514.89
601.58
545.05
588.30
2126.19
561.66
556.54
646.89
564.53
552.36
597.56
524.43
458.22
501.69
667.09
738.17
574.31
982.50
409.78
390.11
343.12
398.38
392.90
436.80
504.61
543.42
569.73
648.85
609.08
418.51
496.63
583.87
501.18
685.03
699.25
596.39
483.38
473.43
365.23
387.13
361.65
308.42
2237.06
377.06
382.89
451.83
379.11
386.64
315.98
462.01
437.02
530.89
458.15
530.04
403.73
930.71
427.23
464.60
523.47
492.21
446.19
573.78
498.21
621.22
609.60
591.95
550.28
655.27
710.79
641.63
544.66
501.37
415.43
490.37
425.35
555.16
560.70
586.05
495.87
510.33
2123.55
599.63
483.35
496.66
442.33
502.51
448.53
585.69
579.88
586.42
483.77
548.63
374.78
830.37
355.46
507.74
463.86
572.25
575.76
577.30
470.46
375.76
374.41
466.18
508.30
640.43
594.35
559.35
527.70
500.99
378.70
528.29
656.68
988.42
905.51
773.96
352.98
779.47
1148.54
309.19
605.08
722.27
686.55
767.59
610.06
568.79
491.97
593.96
551.37
624.33
517.96
597.31
436.94
500.62
315.75
350.21
375.35
424.58
417.43
437.08
423.81
540.13
484.69
2103.31
478.45
493.62
464.96
623.13
497.71
528.68
555.54
622.27
550.15
728.15
729.50
747.29
1010.57
527.21
486.25
405.92
500.43
755.94
556.50
349.02
490.15
616.57
596.16
575.50
550.65
711.53
562.17
544.21
499.98
595.94
533.56
527.35
556.85
431.09
385.38
349.42
393.90
2112.70
386.67
628.17
425.75
528.87
446.03
476.80
483.82
579.88
562.52
644.45
643.07
639.89
959.22
503.54
465.66
428.20
410.90
464.50
393.66
475.48
407.60
501.87
568.28
570.04
558.38
646.77
485.85
666.08
618.62
619.98
501.21
551.31
516.68
593.04
533.49
590.20
566.71
2169.96
553.77
592.87
518.17
445.45
353.26
341.25
388.87
399.15
414.73
336.63
330.56
460.12
912.34
524.52
544.84
633.28
658.55
700.69
568.93
609.18
454.91
423.13
470.18
470.96
448.62
519.53
511.58
575.43
542.46
539.71
487.14
491.78
446.71
428.35
394.73
501.44
418.98
2005.67
580.70
728.45
625.67
740.18
372.60
404.15
359.18
424.75
514.33
691.50
650.27
791.88
1069.63
599.82
413.62
548.29
611.23
609.80
559.81
531.29
471.14
439.40
286.42
332.98
330.56
513.11
338.64
443.18
490.36
539.51
437.29
533.52
531.01
599.00
531.33
634.71
582.04
2115.63
425.29
400.76
418.94
666.86
772.65
774.50
632.63
568.54
380.54
510.09
390.30
535.82
703.84
567.30
534.09
577.89
584.95
582.02
429.66
403.38
380.07
379.99
372.40
337.28
335.32
534.99
570.80
409.19
338.43
522.03
528.06
603.90
558.80
578.95
518.84
604.90
496.76
2060.89
613.93
637.70
653.83
580.99
517.41
473.98
378.98
384.01
360.60
427.21
493.59
464.11
738.51
485.57
532.67
614.08
509.79
699.75
633.56
656.22
586.50
778.28
675.70
684.62
496.90
518.38
358.53
348.72
376.79
470.76
452.64
539.88
479.32
578.12
552.87
652.17
530.99
2002.91
453.53
474.52
508.82
521.22
451.31
492.00
520.23
578.18
544.82
613.38
533.36
521.64
914.90
431.62
403.18
405.53
369.13
468.98
397.33
443.15
439.21
620.13
506.22
601.73
573.18
807.35
568.79
631.31
505.79
333.49
422.92
345.58
431.31
560.25
562.18
613.75
476.33
2090.26
634.82
668.41
738.53
814.89
659.71
609.61
493.25
470.19
300.88
362.44
347.59
426.81
963.20
542.64
528.57
539.59
550.16
413.07
355.71
383.68
404.54
576.95
636.02
605.18
598.23
793.01
593.41
636.60
526.93
471.78
391.53
456.79
404.20
398.56
352.78
483.04
548.39
1987.60
613.03
581.24
411.54
366.50
437.21
605.36
457.04
424.04
399.38
435.59
665.36
858.71
1116.04
535.63
414.68
549.96
468.55
524.92
541.26
512.13
330.09
509.33
594.80
323.14
1783.22
579.47
367.61
356.23
429.13
355.98
446.99
781.91
847.15
925.07
837.73
773.02
517.04
553.98
298.24
418.69
387.03
462.11
418.58
535.85
479.31
576.64
447.53
542.21
623.80
1891.58
548.38
417.74
477.67
404.76
422.39
419.08
351.84
462.86
474.31
500.22
481.68
526.49
740.40
736.38
606.31
623.56
633.10
674.25
662.77
811.24
721.57
773.12
635.17
588.61
1932.35
353.89
372.81
312.96
280.31
371.45
325.06
359.29
376.11
435.51
477.43
505.03
537.19
1073.86
614.89
584.05
493.59
575.59
550.50
611.87
479.01
538.57
475.80
501.83
553.02
756.84
766.97
809.53
702.25
631.91
482.44
430.69
418.36
481.05
484.94
493.18
461.83
443.68
1356.40
398.59
381.41
397.37
401.11
481.25
443.09
601.64
414.79
538.32
459.12
523.42
407.81
649.08
437.05
517.44
397.97
556.14
488.14
595.90
499.27
471.01
381.02
472.55
453.54
513.20
582.01
588.19
710.49
976.68
723.52
611.62
376.32
366.01
426.30
386.14
325.37
377.28
1351.26
346.54
323.27
344.15
429.53
657.30
536.62
711.71
567.30
539.19
519.30
512.54
488.20
785.79
571.00
614.74
488.27
694.04
716.22
717.94
575.32
384.70
517.10
447.60
386.53
700.34
1103.73
1331.92
1312.30
1112.24
639.83
406.40
899.53
645.84
363.99
322.07
287.18
1823.82
437.31
546.69
485.27
607.25
538.75
487.80
427.92
707.55
639.40
680.32
582.28
525.54
937.39
448.61
395.03
351.17
326.39
411.31
366.52
413.66
332.74
433.20
436.88
480.46
453.70
583.26
460.34
614.01
463.74
547.74
519.59
477.56
434.40
479.23
437.62
461.63
496.99
1872.66
721.43
797.84
618.15
579.46
454.06
454.09
395.82
461.01
361.60
449.31
461.00
442.93
861.43
362.29
416.53
487.01
495.35
528.97
444.04
391.92
311.50
484.55
401.94
483.56
453.05
700.71
490.34
540.76
565.18
535.91
537.60
656.53
569.41
601.96
534.55
503.23
449.79
1851.51
498.54
442.80
403.14
455.74
412.12
451.84
377.42
439.32
346.56
481.40
444.32
505.64
1021.85
618.27
491.06
541.00
496.54
542.64
455.57
504.46
529.11
554.53
552.38
554.66
508.39
503.00
486.78
493.18
556.62
604.59
425.19
609.55
537.68
617.87
595.91
658.15
587.75
2005.73
514.89
402.52
334.56
460.83
341.19
484.52
450.96
514.08
448.82
403.81
315.92
421.37
779.25
357.12
361.28
470.14
474.71
544.10
467.67
558.20
511.92
695.44
721.80
651.77
322.59
376.28
295.24
397.60
483.83
536.03
557.19
617.13
560.85
580.47
458.11
546.13
495.06
1779.71
434.95
415.24
592.19
992.29
935.62
898.15
706.47
769.08
424.27
328.16
550.63
2587.95
1142.07
836.56
258.14
531.41
676.49
796.83
643.16
744.58
535.78
598.69
532.26
650.01
732.75
609.68
409.86
498.16
423.44
472.41
480.42
461.44
465.44
565.06
607.28
608.71
528.38
602.30
405.29
332.35
331.62
435.12
413.01
489.67
480.82
496.26
402.50
398.07
423.48
1802.87
468.48
602.50
493.86
444.14
342.77
391.13
392.04
545.95
598.79
810.41
752.32
805.87
1115.65
584.98
479.69
469.43
448.45
461.47
464.49
491.21
354.85
424.36
320.85
383.98
1615.27
410.62
321.28
338.67
366.30
478.08
405.82
466.38
368.17
501.50
393.05
539.02
423.11
988.77
480.63
514.67
544.83
647.12
564.07
697.22
578.04
585.35
466.66
422.15
338.02
296.49
426.52
590.02
578.41
643.59
545.94
588.92
510.64
505.39
323.85
368.17
335.95
536.64
1643.13
832.19
679.01
623.39
472.08
512.09
482.85
521.95
441.32
422.34
432.00
510.25
441.89
975.11
440.31
498.44
449.30
502.83
402.43
484.90
451.26
459.94
395.02
538.99
604.65
732.80
783.08
615.25
452.36
265.26
281.12
360.23
394.18
595.27
560.87
424.10
406.95
370.90
1547.34
562.52
562.86
614.08
595.49
540.11
440.12
476.92
476.31
625.46
653.30
738.68
571.74
1121.72
570.18
369.18
264.82
438.21
652.68
767.40
655.98
644.33
453.74
361.42
497.95
675.63
880.60
965.99
734.48
475.79
363.30
372.35
376.44
619.63
499.41
551.51
288.62
360.31
909.04
318.72
276.91
344.45
366.16
386.81
396.43
386.90
463.53
543.69
439.93
505.54
368.51
553.01
470.83
556.59
602.78
722.92
580.89
619.19
487.83
457.20
447.97
497.12
454.01
1605.39
541.46
622.52
608.44
571.84
546.16
543.73
405.35
427.41
399.13
579.96
534.40
608.22
1013.08
642.82
479.10
530.84
564.19
549.12
422.94
296.59
255.87
398.61
343.59
339.59
403.02
571.47
610.77
755.99
653.85
589.61
437.64
357.21
302.59
295.41
406.90
409.22
369.56
2955.89
493.90
680.39
599.34
503.47
494.68
503.42
423.77
552.04
419.07
557.76
495.05
588.47
1026.17
621.08
502.61
581.19
578.01
750.67
637.69
695.53
590.38
482.11
396.87
581.96
545.70
729.18
606.80
698.80
424.59
290.62
421.19
833.47
759.79
339.49
334.85
442.14
350.93
3011.38
479.87
500.63
513.44
624.54
497.69
548.13
521.23
546.72
436.14
461.65
449.55
523.05
1090.86
671.48
636.22
715.51
515.61
540.35
476.21
617.83
478.09
433.96
369.25
545.00
499.45
808.18
540.20
514.40
344.62
444.38
511.36
587.12
524.88
493.42
304.84
327.77
482.36
1536.19
532.14
591.05
496.46
470.36
372.18
335.27
355.56
340.45
368.82
587.93
566.73
565.51
1006.17
650.60
485.16
667.19
675.91
556.21
406.78
514.85
461.85
569.05
518.26
436.46
374.48
423.25
386.58
493.90
443.52
523.18
417.61
570.91
506.50
545.29
517.51
517.95
504.86
3048.23
508.87
371.04
405.27
425.73
356.49
400.08
555.12
580.77
539.91
497.66
409.61
458.75
981.78
550.26
550.70
631.23
562.28
640.68
474.32
512.07
384.70
499.13
448.07
402.07
418.99
501.34
485.05
542.06
410.01
526.57
434.13
639.92
464.92
478.77
392.75
490.88
464.93
2863.39
585.58
625.85
431.29
529.75
434.87
520.15
447.20
425.95
429.99
468.11
387.63
465.45
996.98
414.90
370.24
549.01
556.75
814.79
882.97
804.30
440.91
405.86
475.12
624.36
1040.26
314.73
476.82
374.12
364.44
546.32
547.91
601.18
574.96
525.54
495.96
420.68
311.71
412.00
214.73
300.92
322.20
373.65
457.64
699.38
593.37
754.80
613.95
742.30
518.13
3059.87
498.98
451.07
405.67
446.04
352.03
407.11
330.17
400.69
388.31
501.80
544.68
588.99
1091.96
649.64
655.38
712.26
506.34
473.34
346.96
332.40
213.79
345.00
387.59
442.56
455.85
812.28
723.77
865.04
623.20
404.05
339.83
438.35
559.01
585.63
363.82
351.40
324.40
1917.06
436.88
495.17
484.04
599.52
486.87
571.09
371.92
496.11
364.13
487.41
373.92
445.37
581.26
551.91
503.58
574.90
651.73
718.44
612.17
726.41
520.24
501.31
307.50
295.83
478.71
734.76
504.70
516.19
396.95
386.99
351.98
418.08
375.19
411.22
524.88
592.25
508.18
3146.73
346.47
450.55
464.00
551.34
571.45
606.27
584.92
698.71
624.85
682.04
350.72
380.55
931.71
682.38
718.82
783.81
753.85
497.59
713.40
1132.35
753.93
457.20
630.45
767.03
1659.60
668.29
502.38
404.29
421.27
507.12
463.65
462.63
447.92
427.98
528.85
608.15
594.87
792.68
559.86
601.43
437.35
294.07
254.60
318.06
348.61
401.50
327.36
465.12
535.71
3125.73
525.80
620.50
563.27
486.84
500.45
495.24
360.17
481.27
462.10
554.30
540.69
564.21
1043.94
568.18
490.96
565.34
534.71
552.45
643.20
602.50
369.48
333.21
377.24
368.88
444.32
626.38
516.29
456.51
368.84
400.54
419.33
487.03
403.92
488.15
446.51
505.63
633.14
2929.95
1032.11
1106.93
771.28
663.73
410.08
341.55
306.15
312.29
376.26
372.52
318.43
406.04
419.49
409.48
323.35
379.95
363.28
440.62
570.88
566.04
484.10
482.64
358.33
315.57
1038.27
665.00
576.29
736.53
633.18
651.78
516.29
651.91
525.21
534.41
434.83
486.64
323.05
809.43
424.70
460.04
421.97
481.58
467.70
612.75
606.65
592.04
562.96
707.74
669.11
752.04
664.11
618.09
388.10
386.85
360.71
323.92
295.78
308.35
333.99
494.10
585.36
594.78
1050.47
652.15
505.60
472.98
422.45
508.85
407.59
386.27
285.80
558.02
433.43
481.24
363.79
662.05
516.47
394.92
273.38
428.60
420.66
404.37
461.75
604.34
593.66
690.29
686.41
815.28
839.05
748.63
708.03
538.58
366.46
376.68
291.09
382.77
422.38
543.24
530.99
570.53
1048.88
625.14
538.57
550.33
470.22
517.15
476.47
492.27
540.91
804.58
732.27
810.86
365.24
810.44
594.31
307.95
487.71
666.55
494.73
512.41
687.43
874.07
657.97
612.04
516.78
2993.96
536.29
522.69
357.49
385.01
295.02
344.09
290.64
368.32
337.19
461.83
511.17
681.33
1099.57
498.95
292.00
287.50
416.44
551.71
409.25
501.54
405.57
482.88
425.16
484.18
303.11
527.46
617.52
770.48
652.77
703.74
464.92
402.00
343.93
590.59
677.16
614.40
412.74
3036.81
427.41
397.75
369.17
502.80
401.19
408.18
360.53
379.92
450.75
491.98
533.92
668.10
1119.86
689.94
470.77
341.01
336.50
385.34
482.73
545.27
534.24
628.58
567.85
606.47
565.05
606.91
490.95
585.61
548.81
508.93
462.64
572.34
558.17
531.15
490.39
569.37
397.08
3039.95
404.45
506.38
421.22
391.82
400.35
412.13
346.80
469.24
465.00
580.22
532.72
549.62
1057.31
429.16
437.46
463.95
395.43
580.77
535.82
626.12
469.58
513.81
489.35
635.60
490.32
718.74
563.46
598.25
430.44
363.35
431.40
384.71
322.03
586.87
479.14
482.11
448.02
2945.76
514.46
598.32
526.80
580.43
505.38
502.31
426.08
433.62
312.93
538.85
481.51
615.21
913.58
412.41
351.02
474.98
467.64
548.51
557.92
727.99
591.73
542.41
395.65
480.19
457.28
557.45
387.53
410.65
378.75
410.99
599.77
795.79
714.50
825.98
659.69
582.13
365.63
3216.97
677.85
313.31
385.44
560.90
420.11
415.59
346.31
555.19
539.89
604.53
474.85
620.49
1138.72
691.17
525.01
434.16
485.27
616.59
511.53
545.74
416.02
299.86
301.90
469.28
565.96
633.92
629.46
708.74
616.60
551.71
414.57
414.47
379.99
374.30
373.05
337.60
284.89
2911.88
388.93
505.67
490.81
542.70
575.34
562.47
398.36
445.68
327.98
474.53
356.70
374.94
872.97
490.29
464.40
557.85
426.77
511.23
574.76
683.48
544.10
549.51
504.26
489.11
492.57
667.75
630.32
898.03
869.90
807.12
441.57
605.34
988.37
519.06
394.78
556.05
579.45
793.73
661.33
705.56
599.52
706.07
590.69
645.28
407.23
384.35
260.18
362.86
357.42
2736.20
548.83
604.26
497.67
499.87
390.71
429.32
375.20
431.35
322.02
477.37
482.12
467.02
1122.19
508.22
459.34
544.22
499.86
682.38
629.50
835.01
723.98
584.18
436.81
365.01
2748.42
463.36
457.10
493.59
399.74
399.47
389.77
347.17
406.60
468.32
468.63
445.76
411.22
803.66
370.49
516.70
529.61
592.33
532.78
597.18
522.47
599.28
444.10
607.54
408.10
321.98
388.68
543.17
497.02
559.62
504.02
559.73
458.69
461.54
379.86
493.79
478.32
538.20
2680.49
568.93
602.13
656.07
649.96
625.42
516.47
569.79
450.49
472.60
438.61
406.78
545.39
1176.00
828.98
616.67
396.95
373.26
425.91
472.18
345.26
380.30
433.06
458.52
445.96
2834.76
469.20
326.42
437.27
380.52
308.69
454.35
461.67
584.05
382.57
378.87
346.97
582.63
1128.96
788.25
608.70
584.60
484.03
643.56
533.99
644.22
450.69
479.86
325.91
533.88
2617.06
478.46
347.52
423.65
303.61
491.69
406.64
400.98
330.79
359.05
379.69
298.07
369.46
919.58
666.56
702.97
414.64
343.46
527.77
347.17
416.39
697.02
729.50
769.10
564.32
574.55
590.54
619.45
599.09
544.27
534.90
570.71
462.23
586.10
482.50
537.97
437.93
525.36
2710.94
457.63
418.60
640.64
557.88
516.77
379.90
502.85
472.12
605.60
482.36
603.27
482.18
945.39
468.50
562.50
488.30
614.07
620.98
736.35
529.15
406.68
369.06
605.33
580.59
425.51
411.99
402.08
395.56
478.68
443.17
512.79
407.12
552.78
445.66
590.38
528.78
547.28
2647.60
517.54
509.85
603.82
369.42
575.88
657.78
784.40
745.58
783.17
596.59
482.84
350.13
454.55
378.49
482.25
406.59
565.51
519.69
619.85
509.16
583.22
500.62
574.71
472.02
2720.51
495.37
593.62
528.16
560.20
407.69
391.11
338.92
437.68
433.02
445.22
357.07
368.14
901.51
417.12
406.89
490.69
546.40
532.87
434.96
614.57
562.35
590.64
511.08
593.16
480.54
691.16
645.24
643.16
504.98
367.18
313.32
330.01
310.03
311.51
383.26
477.75
511.49
2672.98
613.18
537.73
508.70
485.76
386.17
408.57
373.42
516.48
485.03
528.68
428.05
600.66
940.35
655.28
642.58
655.60
656.44
631.12
600.46
488.22
538.40
554.68
273.60
512.79
606.17
839.56
614.33
501.21
393.19
420.28
428.41
531.74
426.94
481.26
416.54
610.16
560.60
2700.52
445.57
539.24
367.20
421.16
404.30
409.86
413.49
395.08
488.23
540.77
333.28
463.22
954.89
698.33
760.28
874.20
727.60
737.07
484.39
446.60
345.36
415.01
419.75
445.23
2623.59
707.59
667.69
772.55
538.49
560.83
448.94
465.16
453.56
510.40
368.75
457.52
391.51
877.60
385.40
440.56
291.12
359.19
334.11
511.60
463.28
605.48
564.61
590.82
446.07
431.08
471.13
521.87
479.00
666.86
577.70
580.43
346.97
380.22
368.65
477.55
471.53
490.05
2646.87
485.47
392.71
443.35
359.04
430.32
457.05
559.80
441.86
592.29
556.66
727.04
698.51
1096.09
555.00
469.71
291.01
328.76
249.15
366.89
391.14
468.83
369.68
455.24
416.83
503.61
617.60
701.25
569.06
558.13
396.51
467.61
315.24
399.99
338.71
470.05
444.91
462.03
2572.80
585.70
524.77
563.01
555.38
559.69
459.16
468.70
389.81
445.97
553.78
855.76
869.80
1148.30
625.47
360.04
593.81
442.44
296.04
451.25
534.44
557.69
471.61
561.19
484.25
2633.05
683.26
686.46
413.55
369.00
310.71
444.69
468.98
510.85
412.54
485.28
561.79
628.15
961.19
612.70
517.37
409.59
324.00
425.78
403.60
429.73
432.79
559.28
432.90
501.49
347.32
484.69
411.64
581.52
700.66
832.61
628.51
606.02
355.59
377.39
339.93
349.35
285.17
2133.48
355.26
560.99
507.92
580.18
485.67
443.81
417.13
343.44
336.93
472.37
570.82
703.90
866.99
725.37
549.21
726.19
720.46
906.19
626.45
658.66
446.23
419.70
281.99
355.50
1604.77
340.73
336.57
455.53
371.68
500.70
400.51
461.19
420.72
430.03
455.23
451.46
372.18
513.85
365.07
632.23
680.66
843.05
611.67
454.65
370.25
359.43
331.17
332.38
405.55
2688.02
534.26
517.45
440.29
533.69
476.36
537.06
516.34
449.99
466.49
593.90
467.49
515.32
1001.96
609.22
520.68
529.59
322.74
352.31
422.49
454.38
440.15
498.18
476.54
541.89
462.23
665.43
473.97
549.76
510.74
600.17
694.12
1025.30
741.16
429.88
810.49
899.77
436.82
653.38
399.51
622.88
562.08
732.33
646.69
781.26
534.92
464.42
381.57
578.50
474.64
501.56
486.89
418.57
393.80
383.51
315.60
445.31
426.99
384.90
351.02
481.20
459.75
498.39
2550.43
552.90
528.70
530.88
453.33
482.67
439.39
511.83
436.26
536.27
437.07
518.94
535.69
1102.79
534.38
546.97
344.24
546.41
478.33
654.03
514.96
504.64
364.56
425.48
422.50
482.33
531.08
527.70
545.73
631.04
530.56
634.01
625.36
675.71
470.30
530.51
400.73
376.17
2585.66
361.09
276.98
413.64
456.41
607.26
460.78
416.63
383.68
474.27
496.90
362.62
445.47
1101.01
638.13
662.90
575.19
662.40
664.70
808.72
717.34
766.34
660.96
637.85
389.47
361.31
378.39
391.42
350.60
608.90
499.04
475.18
523.93
486.44
424.03
400.02
429.53
489.12
2523.69
546.47
543.40
676.12
524.10
517.68
439.79
459.99
463.57
697.91
633.53
646.27
361.28
909.31
514.76
554.36
713.93
923.08
709.19
484.72
800.66
871.73
548.23
308.81
365.76
2167.90
373.21
567.16
655.95
756.41
627.19
609.44
564.05
500.50
429.99
411.64
339.65
375.89
510.07
486.24
429.42
452.51
502.56
572.87
588.74
529.46
582.94
558.55
404.94
436.38
426.19
658.93
546.20
682.11
555.24
544.91
449.67
487.68
290.37
383.79
314.89
434.84
379.99
2563.46
549.86
593.78
567.28
669.79
642.08
703.11
585.16
526.92
378.90
392.07
378.99
474.75
864.02
540.89
481.78
581.06
564.12
570.79
402.44
357.18
300.86
408.51
281.77
351.11
338.19
561.44
508.42
585.56
442.21
455.19
331.24
454.68
484.39
542.77
507.70
665.38
490.92
2506.19
573.76
742.76
819.72
704.12
531.52
555.46
356.58
458.21
387.86
393.49
377.02
388.43
857.54
535.12
423.54
455.96
393.58
496.10
402.13
482.52
487.23
528.42
522.76
496.47
267.22
463.77
429.74
486.65
478.79
470.41
491.51
633.33
535.33
670.49
623.45
628.58
511.42
2617.57
334.09
437.52
371.53
504.28
345.29
518.86
585.28
700.79
583.86
558.21
486.62
477.09
867.80
406.61
350.45
396.41
367.86
455.87
661.21
1007.41
883.14
707.10
372.00
409.05
1677.63
684.57
606.10
616.59
475.04
353.08
271.83
313.33
370.71
463.65
405.87
581.38
476.15
815.33
458.89
477.26
371.46
524.75
469.23
480.32
559.19
658.22
529.61
616.78
428.64
542.24
533.50
468.73
402.11
494.12
428.24
408.77
360.61
447.60
298.81
480.81
432.01
535.94
2322.01
537.94
377.71
464.50
385.47
563.10
480.80
673.65
572.24
621.55
372.65
351.48
351.23
840.98
423.32
462.77
454.08
666.67
560.27
504.10
537.62
603.10
576.26
636.65
520.13
481.63
412.23
442.89
372.24
310.58
343.10
466.34
436.05
533.17
500.16
494.18
510.62
532.09
2466.30
486.88
416.52
442.40
465.09
546.90
563.84
650.60
526.37
654.62
434.33
472.06
472.51
1024.52
563.29
578.77
459.45
574.96
567.36
688.91
680.38
745.96
529.11
439.42
361.74
380.12
470.75
391.49
455.43
497.49
567.12
686.00
607.06
620.76
535.13
647.25
495.22
539.22
2333.23
383.34
312.77
429.78
334.19
482.96
400.15
512.62
507.77
613.75
393.41
563.39
479.66
918.76
496.90
500.08
602.91
635.09
509.17
473.51
353.26
404.40
325.60
505.40
528.46
538.06
616.97
513.75
535.79
463.72
432.34
533.89
464.81
510.71
488.74
704.57
649.89
684.78
2380.44
465.41
312.32
426.11
544.36
604.90
668.87
734.54
798.94
865.66
669.14
825.09
538.79
518.52
506.02
724.31
593.58
372.53
440.79
592.84
536.64
622.24
530.49
653.15
631.09
2426.46
617.25
596.45
420.33
553.75
490.03
611.26
466.16
528.90
462.65
484.84
396.93
477.45
817.17
482.35
337.17
399.46
370.33
403.14
407.38
508.50
401.44
508.82
378.65
521.23
484.40
661.41
501.02
594.58
535.69
578.38
491.57
553.11
409.29
522.40
427.57
446.20
552.26
2345.05
715.58
698.31
517.83
561.49
353.31
426.25
366.53
505.18
427.47
524.34
533.17
650.27
1147.59
813.11
668.59
605.12
417.76
441.23
445.85
397.95
400.26
438.84
363.95
621.41
2342.81
602.21
435.69
432.03
435.54
620.15
581.46
755.35
610.22
593.05
493.27
413.49
804.17
1300.31
573.70
368.87
381.78
475.16
415.44
500.07
389.79
483.86
550.00
661.19
545.06
2363.11
605.69
619.55
493.94
435.32
513.70
571.64
581.07
754.04
614.23
600.84
354.52
374.90
829.78
429.73
405.92
582.23
643.27
808.87
676.88
476.56
455.33
559.88
410.48
462.98
373.01
745.26
541.36
639.16
673.33
650.00
507.85
499.33
474.15
417.60
422.68
518.40
474.51
514.56
628.87
522.46
429.80
490.16
468.39
449.64
441.39
632.14
650.37
658.74
590.09
419.96
2428.92
344.16
517.04
767.90
756.99
1140.95
1036.50
956.87
747.14
553.89
537.10
799.44
2185.88
493.69
398.92
423.30
492.93
564.21
456.17
525.25
428.50
488.44
443.49
548.93
545.52
805.11
511.60
612.76
374.17
436.75
326.25
497.20
493.63
672.89
555.85
622.48
475.54
2300.93
493.27
485.87
478.23
565.54
482.02
560.42
436.14
516.41
473.28
548.14
389.19
477.64
792.14
421.50
430.82
628.74
633.30
662.91
538.25
511.95
471.77
514.50
392.25
454.53
399.11
682.03
450.96
556.27
533.67
646.59
540.51
550.18
553.53
554.89
535.37
597.49
368.88
394.77
406.22
382.67
470.89
617.21
663.93
742.33
678.77
762.89
632.63
722.52
529.38
479.39
1735.62
415.30
357.12
536.84
431.56
526.52
461.11
534.19
411.69
402.84
356.06
484.22
420.43
692.45
528.65
538.05
537.13
551.00
523.79
600.67
572.72
627.35
544.05
577.83
566.46
646.49
561.17
411.83
366.04
420.16
380.59
525.02
421.38
390.93
374.68
648.05
804.02
879.74
2318.27
683.94
399.79
486.53
408.26
358.05
453.27
456.71
452.40
423.60
437.22
420.57
438.10
660.76
573.24
624.93
524.11
637.67
514.06
630.26
626.50
727.41
605.52
609.14
336.26
460.01
431.33
451.89
471.82
595.73
523.18
613.38
601.05
620.96
566.72
515.68
479.65
554.81
2218.33
528.62
461.49
536.97
434.82
493.59
481.36
546.26
495.02
559.27
432.39
545.68
399.60
922.56
443.51
514.32
507.46
549.37
457.75
502.28
517.86
487.55
500.32
546.23
520.11
546.03
580.89
531.81
427.14
557.73
485.99
527.20
528.96
631.99
542.93
643.17
538.03
593.10
2187.69
718.84
675.10
617.86
531.64
459.21
562.19
559.80
346.54
529.01
458.32
609.93
542.52
1160.11
491.50
498.18
444.04
605.78
549.02
499.07
431.13
394.39
395.83
480.95
439.80
452.00
528.58
530.22
491.53
582.89
462.21
522.33
446.42
517.26
423.71
564.24
504.67
742.71
2135.65
705.47
638.65
550.27
391.57
465.96
435.58
536.46
625.92
923.81
751.89
832.72
658.90
876.47
608.00
534.11
385.47
342.89
557.61
571.45
642.38
551.36
407.34
457.46
539.58
2213.49
374.33
427.81
377.00
533.82
437.63
500.18
429.20
583.70
521.30
669.64
508.05
538.34
589.10
496.91
455.42
522.33
497.06
552.08
523.79
540.35
650.63
720.21
681.34
685.77
437.21
542.73
548.83
745.03
719.85
677.06
476.88
555.47
427.98
360.38
333.22
389.72
328.79
2226.02
331.31
437.59
379.04
595.74
633.83
655.87
513.80
617.45
466.19
552.10
488.24
449.11
873.32
441.80
443.45
507.52
511.66
588.00
526.02
635.77
645.00
638.05
665.06
766.57
738.06
926.23
525.73
450.34
355.26
506.14
489.52
561.27
502.71
462.88
324.99
389.79
376.33
2431.94
496.56
488.32
405.32
512.30
389.28
492.85
467.11
473.87
438.83
566.58
475.78
565.32
776.73
625.51
490.59
476.79
383.49
453.70
428.41
571.70
516.54
506.23
508.02
516.01
438.06
656.85
538.88
522.57
440.98
445.25
448.60
578.50
488.54
569.26
417.06
618.48
575.24
2192.18
537.80
582.93
525.05
588.39
471.16
610.74
443.04
555.35
466.99
479.16
411.53
462.60
888.28
455.38
456.81
412.77
443.85
473.83
460.14
535.03
522.96
643.44
518.41
525.09
463.46
613.62
521.33
592.88
488.20
567.27
479.13
594.16
507.74
558.90
434.85
445.12
335.25
2081.36
392.52
520.12
490.32
524.45
461.54
500.27
497.34
624.61
509.90
569.84
565.14
513.10
933.49
404.00
450.31
566.10
593.46
728.54
567.64
597.73
439.13
369.50
335.15
540.15
654.75
738.43
587.49
583.74
564.56
620.94
503.93
571.62
511.41
523.53
468.66
533.92
525.76
2187.26
734.03
683.74
434.27
396.60
393.87
407.90
460.96
509.48
621.54
640.11
424.65
401.43
756.44
434.30
420.61
549.25
489.27
616.09
559.22
645.73
535.99
649.53
657.61
714.05
510.38
484.55
368.68
338.62
343.77
594.87
489.29
578.71
534.01
534.19
490.46
536.83
549.81
2115.26
504.39
526.07
433.37
586.95
537.69
706.98
616.46
571.29
443.13
467.21
476.31
460.35
888.16
506.30
544.17
547.03
374.67
460.73
391.49
472.14
310.56
413.40
320.49
414.29
447.08
538.54
496.93
482.42
570.24
638.43
660.10
897.89
857.89
647.15
468.23
530.40
388.15
1043.19
490.80
594.84
468.65
476.18
347.45
401.32
376.81
504.16
403.39
489.38
393.50
461.22
483.46
618.99
515.10
537.75
503.01
568.84
529.46
628.56
558.70
641.76
500.29
549.85
2021.54
499.63
384.43
443.15
411.65
506.03
297.12
369.46
333.45
455.41
464.29
560.34
433.57
935.63
524.35
552.23
583.11
597.04
667.47
779.87
737.37
738.73
534.87
524.38
371.77
390.95
385.11
501.58
493.19
587.92
524.85
570.64
490.09
586.65
416.70
464.92
537.07
569.32
2054.23
705.00
600.87
608.93
441.13
388.15
364.26
355.86
367.71
449.18
420.40
470.37
460.23
1146.52
527.36
583.18
395.58
593.13
553.44
537.14
482.75
650.45
731.04
849.05
728.39
694.49
367.60
439.66
307.65
475.29
470.37
555.73
560.71
676.35
570.54
676.77
537.48
481.44
1796.78
436.54
410.61
492.17
451.57
510.32
422.01
442.96
526.70
568.36
444.53
451.12
425.82
641.22
426.81
423.02
344.80
383.45
390.64
463.73
454.91
525.14
505.18
677.09
570.60
539.88
491.68
445.94
519.48
593.18
433.86
549.51
435.16
484.46
395.59
610.07
441.39
547.00
1829.99
664.96
590.57
568.14
480.43
451.76
501.65
579.90
602.19
669.42
558.39
640.58
524.64
971.34
545.06
662.20
526.30
577.98
507.87
629.59
552.04
655.30
489.60
492.10
361.79
342.01
410.65
406.57
277.07
355.63
315.03
456.78
339.37
454.68
333.81
468.58
374.28
470.39
2008.19
624.69
592.62
694.25
514.00
703.34
515.73
599.42
526.69
532.26
421.44
460.10
500.23
1080.40
525.65
669.46
587.68
620.58
380.67
408.43
365.31
561.15
530.63
694.39
611.93
697.17
678.74
712.21
674.37
780.35
472.50
341.89
364.62
371.73
343.75
396.13
393.20
536.63
1885.85
465.46
407.73
512.16
428.35
619.23
603.95
743.73
593.41
697.51
658.03
598.29
388.69
958.22
476.09
579.26
565.21
528.41
366.47
345.19
369.10
501.40
573.92
585.80
505.42
536.69
401.27
415.96
339.90
464.03
658.07
630.30
702.72
799.68
604.52
490.88
302.22
382.24
1836.84
477.44
424.74
506.11
501.18
580.47
671.79
909.68
770.46
743.95
552.49
532.51
377.30
499.37
378.09
369.63
376.99
448.01
355.05
380.85
432.50
549.50
646.61
711.22
650.10
603.73
454.92
496.15
345.21
316.81
348.67
498.79
567.48
656.34
583.48
692.07
495.53
530.77
1906.21
645.01
542.73
577.87
413.59
455.56
325.84
494.08
539.55
617.07
481.91
461.07
451.96
1169.27
429.05
443.53
416.37
525.71
411.26
559.29
513.25
572.02
524.98
479.49
577.08
675.10
718.28
708.14
526.31
612.52
592.11
638.96
512.80
515.98
434.05
366.74
368.07
442.99
1781.54
397.18
492.05
473.40
286.11
436.12
434.37
400.95
321.16
366.69
419.85
494.47
458.24
1095.65
636.44
638.92
605.74
609.46
597.24
733.95
641.27
746.26
520.21
572.46
449.39
452.36
369.00
443.50
680.60
354.54
277.58
461.16
431.22
569.81
487.16
568.20
379.98
554.12
1892.37
918.75
879.14
912.76
725.65
614.81
376.15
509.63
478.08
672.27
493.71
498.04
1796.36
465.49
318.52
395.09
387.95
396.61
340.38
412.80
398.58
535.10
510.37
708.07
613.91
1102.97
622.59
699.73
582.94
513.89
423.66
534.21
443.56
416.09
307.78
372.48
410.90
459.92
477.08
538.54
476.18
517.95
453.61
431.47
324.10
431.66
394.08
489.80
509.77
622.26
1765.95
698.82
547.23
604.94
452.87
623.07
516.23
558.73
388.56
421.40
404.26
456.06
388.71
972.26
386.47
366.30
318.49
340.77
367.23
554.44
567.50
599.02
509.53
578.48
488.78
608.07
556.25
599.43
480.19
627.72
618.98
694.00
580.34
651.64
647.08
734.50
588.43
620.81
1709.09
490.04
483.81
404.00
240.18
404.87
455.19
572.82
425.44
514.05
349.57
452.08
418.45
1089.78
583.88
594.83
395.95
367.73
377.19
459.62
520.33
501.09
509.68
585.17
480.16
528.47
403.48
449.12
303.80
329.58
475.04
565.65
439.26
603.07
506.19
577.92
612.23
660.42
1772.31
543.11
501.46
544.80
462.95
466.89
444.51
470.41
468.72
544.73
550.98
580.17
575.55
1129.88
556.90
647.24
486.75
503.70
347.06
370.52
405.12
451.32
466.59
657.33
575.18
659.16
547.20
582.30
506.34
571.67
516.09
598.47
447.99
594.09
378.35
346.98
315.20
320.93
1582.38
371.75
396.60
459.39
397.48
504.48
405.52
565.77
448.73
623.31
507.82
390.99
275.30
872.20
428.53
768.49
776.98
796.60
630.00
875.56
972.01
1102.47
611.17
302.45
648.72
829.69
261.84
397.83
345.77
465.06
398.32
454.25
424.73
450.10
404.76
449.52
465.29
526.76
618.70
756.48
712.73
743.03
550.75
406.36
325.99
425.23
421.08
339.06
255.14
284.52
1701.07
337.88
501.66
624.65
484.08
566.84
516.32
593.82
537.35
647.10
579.74
541.42
431.09
905.05
523.25
520.04
368.13
479.19
306.75
463.95
567.99
725.58
701.28
799.81
462.90
1821.75
347.36
487.53
598.42
574.49
288.53
389.39
345.28
533.32
420.69
656.68
555.27
600.46
1054.39
618.29
534.35
605.06
559.62
487.04
315.88
338.45
315.63
482.80
458.95
570.89
534.29
640.91
300.14
341.10
300.91
444.64
548.76
632.13
571.63
576.69
506.10
418.85
357.60
1606.98
514.04
721.31
641.73
715.05
555.29
650.37
465.12
583.33
489.96
487.07
269.93
416.07
999.62
637.06
537.39
600.82
500.80
420.30
346.26
408.87
317.48
404.01
306.66
425.33
291.14
475.80
385.54
469.26
379.89
387.12
446.61
580.65
472.33
544.43
555.66
716.76
531.11
1849.31
550.19
616.37
453.58
472.19
392.74
481.64
486.12
540.28
492.85
590.04
522.47
534.00
977.73
495.37
375.65
464.40
412.06
505.65
389.45
513.06
424.50
519.70
426.24
542.79
440.86
704.15
485.90
538.35
541.68
635.37
574.45
634.78
580.47
662.75
569.53
666.63
346.70
1520.11
316.02
479.16
569.96
633.30
465.46
452.13
426.27
484.15
463.50
506.01
495.36
622.20
1082.18
769.04
564.88
801.78
807.34
716.13
397.07
357.23
645.68
496.32
276.25
340.16
1419.43
578.62
557.93
692.95
624.10
651.38
617.69
817.26
604.46
703.24
540.66
552.15
389.32
1054.64
417.04
393.48
325.83
286.09
329.14
564.86
454.24
570.73
409.71
455.76
352.37
466.85
578.98
498.15
469.01
575.57
503.35
607.99
480.85
603.79
527.91
614.89
621.05
661.30
1559.38
782.53
684.04
816.71
600.76
693.71
627.90
934.92
903.02
903.33
487.72
517.15
1531.62
341.08
414.85
497.12
480.51
406.19
293.75
352.81
277.62
397.47
358.21
353.53
313.08
564.59
409.64
466.97
488.88
508.42
348.56
337.96
418.24
546.25
545.83
381.43
372.70
544.33
715.79
835.24
689.86
716.26
599.70
802.58
835.03
707.95
500.63
556.21
418.31
415.16
1138.10
534.00
502.32
553.02
583.15
609.82
459.21
610.73
499.16
546.45
373.98
397.38
350.90
1012.85
462.00
616.72
488.70
556.54
574.02
517.79
323.78
418.27
358.90
465.79
247.72
335.28
498.77
615.90
502.84
574.27
447.58
547.12
386.15
499.13
356.61
437.70
323.77
393.08
1232.44
544.00
441.99
585.72
518.42
553.00
452.96
494.69
465.90
467.93
426.49
578.73
494.36
1148.13
579.19
646.39
722.53
884.16
923.73
914.29
369.05
1131.68
1072.34
373.92
619.97
764.69
580.96
510.56
503.27
587.30
564.89
761.27
566.41
536.45
487.17
577.95
649.52
2518.97
896.53
864.33
566.98
518.82
324.35
376.53
265.81
330.81
355.51
490.37
406.43
3145.77
487.81
506.30
450.78
541.14
507.13
548.55
451.62
546.84
435.60
414.82
468.83
491.99
1003.84
658.09
627.81
776.68
686.26
775.51
599.50
570.02
304.75
424.51
313.71
528.31
487.40
636.78
539.63
764.80
610.28
787.52
571.22
438.86
403.10
474.72
421.00
365.39
418.94
3135.31
437.51
510.68
478.59
558.97
419.24
497.51
449.86
454.41
324.19
336.49
344.37
517.46
908.67
551.20
443.71
558.51
545.39
730.57
724.97
829.44
598.74
582.69
562.16
459.83
1081.61
492.98
418.70
571.94
494.64
542.66
459.59
505.44
458.96
432.70
410.09
484.13
468.59
1072.54
458.51
417.65
365.91
488.13
390.48
561.93
570.17
619.11
533.88
387.46
346.74
425.39
536.27
635.12
607.08
747.22
548.80
685.15
521.54
576.94
479.39
539.91
516.94
546.08
1046.80
570.09
434.97
465.72
469.12
598.10
624.84
654.11
367.61
442.69
543.34
350.73
373.53
1030.28
428.78
594.19
608.75
734.45
651.42
691.37
622.27
691.57
461.72
442.06
443.25
624.08
691.10
577.93
375.36
872.14
657.07
402.92
497.77
644.46
570.47
587.89
430.92
545.36
1319.64
890.28
753.52
735.76
525.80
527.07
390.34
439.81
385.96
478.57
406.25
663.56
477.27
756.24
347.71
494.08
379.15
395.79
332.06
404.75
389.34
511.17
498.89
617.34
533.84
610.00
614.94
611.51
499.30
502.18
483.84
576.90
478.52
502.08
331.56
357.99
299.87
383.82
1110.67
522.78
477.97
521.39
461.71
542.49
458.86
624.66
565.64
594.51
562.84
533.85
468.10
935.90
333.30
526.75
517.86
638.06
545.80
535.34
492.03
537.06
537.73
671.00
574.90
678.82
557.75
449.28
334.67
385.49
294.58
384.60
292.94
373.17
398.62
407.04
288.01
347.69
998.44
688.46
655.06
635.38
563.45
607.76
455.36
566.21
462.17
547.85
493.47
594.35
633.65
1194.58
742.42
654.80
248.90
380.12
325.76
437.93
407.55
515.06
393.47
500.28
353.50
603.22
587.99
677.40
481.17
480.52
329.65
454.36
413.34
476.30
411.84
574.68
529.18
592.02
1108.60
539.75
349.79
612.87
616.43
718.07
589.71
686.86
504.62
453.19
437.25
522.93
396.72
931.69
492.28
545.35
493.18
620.73
505.67
417.10
379.02
365.15
340.32
389.82
335.50
577.62
689.56
459.57
408.83
390.27
358.52
637.81
607.38
474.59
386.26
606.74
655.20
719.08
1035.96
477.80
465.89
629.43
610.47
734.09
649.16
626.57
412.51
388.47
355.04
555.49
440.01
990.65
512.80
584.69
470.11
682.32
589.84
565.16
463.22
423.83
332.04
386.11
433.12
522.19
544.36
642.98
473.36
458.08
390.93
452.20
351.05
494.07
418.84
519.28
434.33
551.50
1105.29
677.04
484.98
526.62
501.76
502.56
344.94
434.17
430.11
531.49
534.77
573.26
467.60
1052.79
602.87
528.36
372.03
431.36
392.44
434.17
442.64
619.62
654.80
846.32
608.56
1528.78
671.76
844.31
496.84
433.78
247.40
470.58
535.83
473.10
479.31
329.79
372.04
431.97
1033.13
560.94
465.85
484.17
341.13
372.24
418.28
603.50
510.78
708.55
502.64
653.95
602.86
897.27
755.88
686.10
386.60
403.44
286.21
412.98
439.17
552.02
483.63
524.04
493.45
2448.31
569.20
550.03
329.80
485.11
481.82
666.55
609.08
737.34
591.01
617.26
478.42
409.55
550.60
516.97
368.41
447.55
388.23
468.41
486.00
516.81
325.61
380.61
343.84
434.14
380.32
536.26
402.02
487.57
452.40
526.14
381.53
556.68
440.20
628.61
529.60
708.76
567.58
2937.05
600.07
482.56
464.54
458.54
524.86
577.03
489.34
516.97
419.70
647.35
653.63
642.17
968.69
431.87
312.47
447.80
569.46
568.41
378.88
505.93
390.84
391.87
419.61
559.16
479.97
687.34
532.56
698.11
597.68
630.56
464.62
622.61
460.34
460.08
445.28
508.09
422.76
2884.97
468.18
499.62
496.51
548.98
500.41
610.25
530.98
483.80
375.06
448.91
379.08
490.22
1100.33
622.96
367.44
518.21
492.18
490.56
379.98
504.81
422.12
466.28
403.63
514.07
441.84
595.90
366.02
580.84
560.50
708.36
541.74
512.69
450.31
516.11
448.10
552.02
469.77
2947.53
435.81
519.14
378.97
516.89
458.07
537.71
466.14
691.88
529.80
612.58
531.97
587.44
1115.59
622.08
480.53
619.09
568.46
564.09
416.69
514.99
422.39
458.86
312.91
463.51
474.50
707.17
501.34
560.00
389.52
362.79
285.16
549.31
635.02
708.41
522.24
577.79
437.13
2908.48
463.77
