368.04
429.91
374.36
427.66
410.44
450.44
794.44
953.60
732.38
641.30
580.24
664.45
683.37
1811.95
509.01
467.71
521.08
551.36
657.93
772.75
910.40
888.92
613.12
395.82
501.14
393.29
761.44
873.51
978.35
940.29
828.42
740.56
487.65
399.88
314.50
406.34
422.06
418.86
392.70
604.79
447.12
400.70
458.80
456.31
437.70
538.06
603.11
679.85
570.59
585.35
540.54
2216.63
633.20
547.61
537.96
503.17
528.12
520.62
466.92
577.12
518.40
553.99
546.06
704.56
1373.54
876.85
778.49
560.91
418.35
475.86
474.99
481.27
623.59
691.37
690.11
731.71
576.80
833.02
657.86
724.00
776.12
701.82
499.83
438.76
379.66
423.56
487.56
633.02
829.63
2264.24
789.15
650.01
416.66
407.86
383.13
586.04
963.95
752.97
359.33
426.00
591.42
792.78
1327.51
925.14
731.60
597.91
630.96
849.84
1123.24
1202.04
619.11
585.00
1076.16
572.02
1123.07
676.10
661.86
636.85
627.55
601.04
489.51
452.29
453.68
348.84
327.41
410.49
828.41
1148.22
958.40
519.90
360.69
319.90
529.92
648.11
797.40
949.28
898.57
658.67
705.00
1852.98
382.23
392.38
461.24
558.96
387.86
411.35
383.19
508.58
498.83
622.59
950.52
1174.41
1282.08
868.88
468.05
527.33
725.47
387.76
389.61
827.60
993.96
977.08
784.44
665.06
1794.62
784.94
777.54
997.66
1075.55
619.60
462.25
479.94
400.81
613.95
770.55
535.48
349.89
464.45
729.35
576.99
308.54
424.27
423.45
440.99
507.16
536.38
533.84
595.64
537.97
2071.70
563.87
608.05
917.18
1340.21
1386.02
1244.80
1150.00
582.24
592.88
575.70
479.07
1863.75
665.61
699.62
669.48
479.62
430.03
460.41
587.95
640.42
410.29
394.86
463.60
495.20
615.82
472.78
449.55
445.68
464.81
613.09
666.02
763.84
758.72
797.04
574.15
458.83
377.41
651.43
566.36
637.85
719.32
621.87
453.92
534.37
458.53
476.96
526.17
790.37
642.02
1943.59
452.11
550.36
672.31
862.75
1030.28
859.73
692.42
523.37
392.04
519.38
444.47
337.38
585.76
418.96
420.40
512.54
456.25
458.03
440.90
537.84
501.03
582.18
544.08
566.64
554.59
729.11
699.48
622.75
653.83
801.32
842.80
735.09
498.82
395.21
296.63
363.63
463.54
1913.23
791.63
668.96
602.73
557.41
565.83
630.75
698.32
687.48
490.25
529.40
454.67
517.99
1195.50
668.93
577.28
562.46
423.03
508.65
588.19
675.04
434.99
447.49
362.56
475.27
580.42
843.65
909.85
1229.34
1313.64
1343.11
998.43
391.00
1036.62
712.94
413.05
556.15
494.75
745.47
463.81
489.89
569.36
653.70
662.00
692.50
607.75
530.91
537.29
399.83
393.96
3653.63
449.16
399.58
409.29
471.01
541.97
589.92
696.98
795.24
798.07
655.26
471.34
418.62
993.93
335.42
397.46
470.77
428.64
512.37
421.82
440.17
454.34
494.83
557.64
554.06
482.45
626.07
596.36
652.33
664.65
727.23
528.24
433.67
478.88
631.43
838.41
852.15
673.63
3591.92
635.58
582.73
493.94
585.94
531.61
494.57
468.90
368.18
382.36
492.40
480.81
535.48
1142.25
554.57
570.75
430.28
348.69
608.78
742.27
841.94
705.32
622.35
523.70
482.31
493.87
725.63
617.54
744.48
474.92
450.43
474.58
600.76
637.37
652.00
584.88
483.80
465.16
3644.69
580.18
549.62
583.38
568.75
638.26
659.61
621.04
542.10
500.60
611.03
550.12
659.00
1174.91
584.29
488.84
543.41
631.83
598.96
593.22
628.10
690.53
897.90
896.18
934.80
905.11
985.31
572.69
385.12
380.02
401.41
373.94
484.47
398.58
482.83
530.52
744.81
806.53
3613.22
511.30
387.24
537.11
716.25
554.55
419.64
576.55
731.05
900.85
1180.32
1339.47
1255.97
1025.63
570.15
368.89
446.91
471.63
688.05
702.08
502.27
391.34
438.48
484.63
331.21
1094.91
490.81
571.69
690.43
635.72
661.40
461.45
481.18
387.07
575.48
840.33
982.04
930.03
959.89
634.58
400.22
350.43
412.81
383.00
432.66
507.40
531.56
597.01
552.33
586.46
1901.16
623.95
689.12
602.83
659.65
666.07
641.41
535.96
563.92
553.65
426.63
549.43
630.38
621.92
528.22
375.48
399.88
419.85
476.13
511.14
647.84
636.74
634.07
529.00
482.02
526.39
607.73
544.04
568.83
481.74
413.55
488.43
710.54
721.88
529.08
540.21
503.24
461.89
3746.32
573.84
533.40
523.77
597.18
484.34
461.53
449.43
485.55
510.92
609.90
663.49
623.76
1134.68
603.33
520.38
591.89
633.69
631.10
492.08
710.51
730.44
698.24
525.61
475.47
528.21
631.99
500.64
412.01
457.36
462.29
580.76
582.39
655.24
588.39
556.23
580.66
568.84
3587.26
632.67
754.76
883.52
842.56
779.56
803.93
788.02
844.08
750.18
551.29
513.41
600.29
1182.40
605.08
680.99
751.89
607.05
441.79
445.91
481.89
367.66
409.67
415.13
445.88
414.79
635.55
563.69
629.25
554.28
526.49
413.65
411.28
392.67
531.92
446.39
506.19
441.99
3703.97
486.24
542.05
581.93
700.73
655.98
676.68
620.03
581.46
502.02
599.76
581.98
830.14
1485.02
1245.27
1131.70
1067.34
538.66
419.37
455.95
753.66
691.07
392.14
390.95
461.19
1311.73
849.56
502.69
477.85
757.19
334.57
629.58
852.46
914.37
920.83
683.68
635.96
1329.20
672.23
557.08
543.12
540.11
607.61
667.33
542.73
516.46
597.89
555.82
620.04
490.41
1168.03
519.94
575.16
521.70
438.81
489.88
519.91
510.34
471.92
544.45
498.32
539.88
563.57
699.84
662.10
570.36
626.63
626.06
668.37
541.72
544.65
430.69
520.82
605.98
648.74
1473.20
928.65
894.79
962.80
963.40
610.59
402.97
384.14
400.12
503.46
526.20
761.55
563.75
721.05
529.62
587.52
695.51
772.60
717.26
603.99
508.51
480.50
411.19
415.60
390.22
474.43
599.72
571.00
402.62
464.50
557.04
656.20
656.88
748.76
700.47
513.44
350.46
409.26
1255.94
808.76
790.14
639.09
413.60
538.13
476.96
504.42
530.75
650.00
501.50
456.94
431.65
1069.15
346.58
414.72
373.53
631.67
764.39
748.37
495.51
354.02
418.31
410.75
689.08
831.40
807.35
650.25
678.08
644.22
641.53
695.22
703.93
697.23
696.29
646.83
602.22
736.33
1285.48
431.09
414.29
620.29
403.71
443.42
498.15
626.91
528.98
494.80
437.02
568.08
756.81
1332.19
613.69
521.70
519.61
627.89
651.51
660.57
613.50
479.31
588.52
754.06
817.02
748.42
617.72
453.60
403.46
419.82
488.98
637.72
573.07
623.19
749.94
809.87
690.73
751.28
1322.23
615.02
570.49
429.73
441.91
476.44
571.94
461.43
429.44
393.16
361.40
350.09
336.16
1138.38
551.57
672.13
682.32
632.78
695.34
687.21
590.39
463.71
470.51
436.69
489.26
565.18
644.31
654.31
605.80
641.29
630.51
581.05
541.36
491.53
551.23
534.55
515.53
533.58
1314.82
626.47
516.89
562.77
562.88
509.38
592.27
593.60
555.58
617.29
502.68
652.44
508.22
1205.12
683.12
691.65
567.53
583.67
414.75
550.86
501.99
543.15
457.11
467.73
586.29
749.00
820.55
638.17
485.24
403.65
360.57
509.65
555.40
562.54
550.67
587.30
558.71
613.87
1302.17
544.90
464.46
583.41
608.26
630.24
628.46
650.55
503.78
594.85
608.24
520.27
581.59
1295.54
627.44
531.66
401.85
504.71
489.36
551.28
725.61
833.25
738.81
676.92
620.68
480.51
478.84
441.87
440.74
458.22
423.02
511.63
660.57
823.13
747.87
465.72
719.89
859.27
1337.06
799.04
851.50
967.13
867.48
809.09
584.75
518.74
607.85
579.67
519.76
569.42
437.52
1208.49
589.92
513.83
397.39
370.98
469.16
453.39
341.16
401.94
601.40
604.64
630.95
721.61
750.79
777.58
834.04
853.79
722.11
468.27
439.23
546.48
609.73
610.52
566.74
571.21
1285.01
454.40
430.51
442.01
559.00
504.08
393.42
453.23
471.78
482.15
652.14
596.61
482.98
1217.93
656.27
662.18
729.19
735.83
480.84
439.54
379.69
568.67
677.63
738.03
541.93
539.87
716.51
539.81
513.96
846.40
891.91
1015.18
1014.42
635.59
386.14
400.35
478.06
529.70
1305.61
592.21
614.52
706.64
690.59
720.03
617.99
593.16
601.14
562.86
506.76
476.28
445.25
457.80
440.04
507.47
444.28
450.50
606.88
616.52
663.76
777.64
640.84
459.13
471.28
3391.64
612.54
561.73
474.39
539.98
528.88
527.55
480.08
586.65
555.94
671.13
654.20
673.96
1321.62
720.88
533.44
486.48
447.07
463.25
499.66
544.81
516.24
559.72
498.83
576.86
561.67
697.54
583.20
549.99
555.16
610.06
528.29
523.04
498.29
567.02
507.34
540.47
607.88
3302.25
655.17
693.40
792.79
744.86
673.21
594.95
484.68
532.21
637.74
782.40
683.96
637.38
1121.41
466.26
423.75
422.53
382.10
443.54
457.09
602.65
612.18
722.52
679.69
631.22
567.45
710.49
608.41
584.14
566.02
567.04
556.50
606.76
456.73
640.36
584.15
552.79
560.84
3408.00
574.32
513.18
473.30
556.91
536.53
494.87
564.78
564.44
599.59
631.47
649.09
591.61
1286.40
474.44
457.49
398.12
489.40
474.29
555.02
681.70
634.56
626.35
608.20
651.28
552.02
678.58
634.80
746.04
744.89
848.40
843.71
688.79
546.79
460.23
379.82
408.59
471.62
3572.65
412.09
586.50
449.24
511.12
520.74
495.13
398.02
523.26
519.29
589.23
508.06
547.70
1134.31
517.35
520.71
515.31
524.04
512.23
486.26
652.95
608.07
581.34
526.40
545.21
506.58
664.37
629.31
657.11
762.96
592.60
538.58
411.79
439.28
544.76
492.87
376.54
445.78
3331.06
683.29
677.52
632.63
604.75
643.15
677.32
778.15
882.10
784.68
819.03
841.33
1022.96
1448.40
602.84
366.41
452.51
381.15
399.81
437.08
431.15
433.71
464.15
465.78
466.32
3566.34
488.51
586.37
625.59
740.71
837.10
754.22
660.97
534.15
603.36
723.56
728.22
591.70
1245.97
411.05
423.95
445.39
544.49
396.94
499.16
368.77
356.45
430.19
375.32
405.61
485.16
514.92
469.13
387.44
461.44
462.38
499.68
380.43
423.04
560.47
697.18
548.76
723.22
3267.17
673.79
492.07
497.09
463.47
457.86
457.74
507.94
499.06
563.25
626.32
582.36
686.77
1337.84
766.15
764.55
645.42
650.90
536.82
562.25
469.68
526.07
514.68
513.32
465.63
522.00
661.91
633.99
662.56
698.43
479.46
525.64
441.30
552.52
630.76
601.89
597.14
657.87
3286.35
672.93
582.84
568.18
495.41
532.85
490.02
515.99
582.87
653.33
585.38
621.29
506.68
1269.04
503.60
459.91
419.62
423.53
479.30
609.51
774.62
866.54
836.51
741.31
648.47
663.15
602.31
441.53
453.96
457.33
454.94
500.13
429.34
485.38
438.96
455.84
496.20
530.13
3360.71
656.98
737.96
840.74
793.23
790.01
556.34
397.72
542.49
382.11
540.28
707.53
617.05
1321.56
686.16
765.54
782.03
896.48
900.69
757.48
556.96
597.51
455.69
470.52
393.11
432.78
466.82
384.59
357.20
366.76
423.06
437.95
421.45
403.70
446.74
594.08
584.46
620.14
3415.54
801.18
726.96
795.61
719.86
867.94
1006.72
985.91
843.39
590.47
561.38
734.61
604.79
641.41
411.14
520.48
407.50
442.43
416.47
488.74
622.75
536.63
528.43
500.20
497.40
561.27
673.71
575.65
563.12
455.87
588.46
714.11
749.75
758.91
701.98
714.62
711.51
751.57
3070.34
622.16
462.70
422.51
396.56
515.90
538.20
672.29
550.90
596.24
422.68
457.32
393.86
1222.93
571.96
511.45
489.35
513.59
471.86
592.87
594.19
736.18
667.30
675.47
577.46
550.83
553.30
497.12
546.02
749.62
907.86
830.85
626.89
478.14
429.97
430.69
455.54
399.78
3295.94
543.73
592.90
591.92
652.05
573.36
613.15
607.95
551.24
580.83
559.96
506.67
449.03
1357.37
554.23
534.82
678.02
639.66
578.83
610.76
486.27
465.05
465.99
562.79
622.31
649.30
626.34
533.79
547.61
544.25
535.67
596.25
410.66
393.06
558.15
631.70
547.56
555.83
3139.72
670.34
586.41
661.65
615.94
597.00
575.94
559.31
511.83
489.19
461.18
480.35
474.00
1194.40
578.76
569.27
593.30
630.67
566.10
746.16
712.12
611.27
391.15
442.45
514.67
579.53
828.90
890.38
699.35
770.72
680.01
595.39
502.50
545.04
638.72
740.50
583.45
461.51
3509.91
486.99
529.74
680.41
702.19
792.43
791.89
810.52
563.73
444.10
396.74
434.09
627.63
1338.65
623.12
633.28
491.06
447.20
490.85
539.10
586.07
676.05
549.02
476.61
412.19
472.41
639.23
508.34
476.44
466.63
478.09
520.50
463.91
458.58
505.34
527.30
471.56
490.83
3330.11
624.15
635.36
560.09
615.59
691.97
766.72
671.00
639.86
588.45
655.75
788.90
584.19
1310.47
398.90
449.44
502.85
804.25
878.24
593.11
476.51
503.69
452.74
652.68
542.08
418.00
480.69
504.87
446.78
428.20
484.31
421.15
386.10
465.21
434.94
396.82
419.03
413.47
3199.15
635.72
582.17
684.04
569.96
699.90
805.33
1012.17
1087.88
1122.10
1103.26
832.69
499.03
479.46
705.66
1084.23
903.22
487.44
441.61
569.22
739.92
792.31
523.96
475.14
504.69
1333.69
613.86
536.54
431.56
600.43
398.02
468.93
592.17
564.00
586.83
626.54
597.86
630.38
794.77
599.94
555.70
599.97
564.75
594.38
500.58
614.43
495.09
462.04
453.60
439.94
3121.17
579.38
573.89
615.96
559.76
535.57
704.05
611.44
457.25
420.84
384.36
485.30
518.60
1319.43
591.14
594.14
486.33
551.24
485.73
601.41
669.75
677.31
568.95
621.06
636.99
603.73
759.83
708.37
649.27
713.65
796.71
666.51
519.82
568.91
547.54
561.21
411.43
436.72
2962.44
591.80
565.23
571.70
556.71
633.43
483.53
528.51
382.44
485.55
391.40
440.87
438.09
1376.25
616.48
714.08
688.04
751.20
795.77
754.64
603.90
549.36
458.76
434.53
479.07
505.60
670.10
590.72
532.23
478.28
428.65
447.84
455.33
536.23
521.38
503.30
581.86
462.44
3129.04
495.56
520.88
569.24
522.60
589.29
500.52
608.44
616.21
516.34
563.59
725.51
587.79
1331.79
675.67
635.41
619.66
679.49
601.04
668.40
559.21
526.77
523.27
530.69
539.45
504.79
701.09
581.65
517.33
573.27
563.72
546.81
448.50
478.67
411.09
405.38
438.47
496.46
3044.72
509.83
590.71
609.72
471.62
570.09
466.56
602.25
592.04
624.90
574.34
458.14
426.13
1224.51
478.37
500.76
534.58
570.59
656.42
691.06
694.77
637.80
487.48
587.97
555.31
694.06
758.39
619.14
520.37
617.55
454.60
453.99
499.50
577.47
600.79
757.29
623.87
456.09
3004.99
613.31
768.52
891.74
809.38
695.03
537.79
397.96
499.40
548.77
601.75
422.74
439.16
1355.02
739.61
882.81
760.58
663.71
525.18
483.13
439.52
475.27
461.64
410.59
533.45
600.81
716.31
606.86
411.57
441.97
407.79
449.99
395.06
539.29
519.14
576.08
565.93
582.63
2977.98
645.48
565.24
598.18
575.92
574.93
630.77
754.39
758.81
616.00
425.59
392.05
421.25
1377.76
745.91
786.21
650.66
609.40
569.08
505.59
498.91
515.83
411.54
536.29
463.16
560.17
704.89
717.18
684.89
669.46
583.86
665.16
590.76
639.73
592.84
678.07
751.11
715.26
2922.83
755.39
565.75
403.24
348.70
446.49
424.55
564.65
523.59
494.03
431.02
432.54
456.25
1312.55
553.94
552.52
492.18
635.48
635.58
662.64
607.94
597.05
524.44
576.94
515.04
717.06
848.43
797.24
697.86
571.10
452.42
542.31
528.23
532.10
554.34
542.26
508.88
563.98
2977.73
548.75
559.48
607.97
547.81
702.54
870.10
805.92
985.23
1155.65
855.04
590.29
519.65
656.50
443.73
766.09
942.73
549.14
416.54
603.09
710.47
776.95
577.14
449.69
399.19
3020.36
548.72
565.85
559.16
586.99
565.35
588.55
653.29
650.41
608.64
527.06
433.96
437.45
1009.41
537.54
670.12
680.12
562.33
609.77
594.45
584.05
511.78
542.92
479.58
574.28
567.73
722.69
497.63
505.48
520.67
706.95
816.09
902.69
836.14
658.47
473.42
442.43
529.63
3175.13
465.82
586.63
672.10
691.68
690.76
715.92
626.12
601.70
513.37
520.07
447.86
473.78
1029.55
581.41
521.95
618.68
577.37
636.75
646.49
594.44
536.90
532.62
623.66
594.96
538.50
663.22
602.28
549.82
582.37
484.29
425.43
393.99
455.35
618.26
648.88
644.01
558.04
2994.40
581.16
640.76
619.23
602.67
559.40
615.12
609.37
685.29
788.65
781.07
684.90
659.82
1156.84
543.14
453.27
479.22
505.72
518.90
504.85
543.28
430.54
476.60
493.64
461.59
492.78
776.00
660.51
604.57
741.11
757.01
618.88
516.53
519.63
592.06
581.83
604.20
565.19
2907.92
703.09
609.86
630.57
637.38
771.18
770.99
767.94
786.07
834.91
803.78
812.13
634.00
990.78
863.59
1035.67
604.39
506.13
511.07
537.43
569.00
551.06
503.38
533.49
524.59
554.94
790.12
677.20
677.74
537.28
614.14
515.60
448.30
543.17
452.07
437.56
526.58
595.68
2808.18
640.56
600.68
580.09
562.31
450.24
474.21
490.00
528.60
562.94
525.18
532.59
632.59
1147.45
578.79
641.26
764.71
789.41
685.83
522.96
407.02
501.02
489.75
637.18
716.87
643.94
734.38
727.16
721.10
712.93
690.95
652.43
521.85
431.82
434.27
403.15
500.92
450.25
2723.47
533.55
562.06
594.04
540.38
482.43
501.15
501.86
640.18
697.47
765.10
737.37
736.26
1266.27
684.01
530.85
479.65
450.73
470.52
453.09
442.10
481.84
591.55
500.39
558.08
516.42
679.98
527.49
538.74
544.93
461.99
501.98
551.77
519.85
627.63
635.91
626.68
530.66
2888.33
814.02
811.99
844.44
850.01
672.77
586.30
564.80
821.25
1252.34
1339.69
1110.37
761.23
591.30
551.55
1154.99
1231.41
957.25
458.55
476.19
586.36
626.26
538.16
488.82
460.82
677.76
739.35
824.66
965.56
765.99
692.88
617.76
524.08
475.81
526.22
492.24
542.12
2815.17
593.37
508.79
616.96
698.55
892.38
859.07
734.07
466.53
422.22
422.37
485.48
540.56
1355.50
448.90
573.95
570.76
481.14
452.66
571.30
505.51
629.53
589.99
560.36
570.50
798.98
922.60
1021.95
873.94
745.74
615.17
561.66
381.40
427.47
513.42
595.56
651.72
734.81
2070.15
570.23
799.26
551.09
430.09
521.21
619.73
590.14
517.13
472.77
529.49
620.45
720.24
890.86
706.37
736.35
672.01
567.10
493.01
595.58
674.53
653.02
620.85
591.16
572.46
459.20
565.15
456.57
454.88
540.84
581.18
688.98
771.33
642.85
520.70
390.30
414.38
621.30
2809.55
754.66
562.47
515.72
485.23
508.53
575.14
609.47
553.29
541.35
516.34
496.22
515.06
1329.93
583.81
793.80
783.33
821.38
731.15
747.19
728.35
731.32
651.86
649.76
458.51
507.64
600.51
560.53
568.72
613.00
482.73
502.53
497.92
400.73
477.23
522.80
467.79
563.70
2719.09
542.13
544.08
548.61
538.79
705.25
884.60
918.54
594.95
448.79
426.41
433.88
425.51
1314.92
692.34
712.19
753.17
622.51
440.69
534.79
421.10
503.71
543.44
697.67
777.03
887.76
834.21
511.37
412.35
459.31
501.60
633.91
524.37
508.67
518.89
512.80
356.18
458.50
2636.47
654.90
794.43
928.86
941.46
732.50
541.59
590.18
555.34
422.82
348.95
477.73
506.57
1273.79
604.43
754.90
771.37
738.38
594.64
537.36
514.55
441.72
392.23
448.22
472.14
514.10
462.71
495.68
583.70
609.74
534.89
542.25
544.70
465.34
520.83
605.95
530.08
640.38
2676.55
620.55
577.46
535.73
542.34
582.13
588.41
590.77
689.64
623.02
661.01
673.81
670.42
1407.51
676.36
715.22
786.72
829.50
785.38
541.70
448.39
408.99
455.84
569.52
666.91
652.77
726.83
513.75
428.85
449.20
504.91
577.63
553.70
702.72
677.08
657.87
592.04
477.24
2659.01
625.00
652.50
651.20
631.29
709.00
697.64
574.74
462.77
536.85
442.99
720.69
848.86
1554.66
1308.59
1374.71
1338.39
943.09
426.75
1019.55
946.03
896.36
1008.89
682.57
391.38
578.86
458.11
470.17
498.35
507.43
520.96
667.91
651.19
681.07
518.62
586.61
537.99
2718.16
723.84
778.64
817.02
771.78
712.06
595.96
483.86
486.87
518.89
636.03
770.97
732.52
1291.42
777.88
755.80
784.78
672.32
667.43
550.57
497.47
578.13
764.29
735.77
528.01
502.24
497.82
408.51
516.89
435.22
591.03
486.25
457.32
425.62
466.84
582.01
757.00
679.97
2688.50
721.41
663.86
594.02
575.17
555.05
528.75
553.23
497.24
527.38
443.86
511.39
538.86
1161.66
677.39
678.98
719.21
689.65
556.97
517.48
536.24
442.86
450.96
485.64
576.62
631.70
696.43
579.77
602.91
576.94
571.80
626.74
662.29
705.17
652.63
775.93
858.38
881.74
2668.81
698.15
467.30
737.64
955.82
623.55
527.26
568.53
572.21
535.11
555.45
691.37
752.42
1346.61
839.28
633.56
613.12
579.53
570.86
527.78
625.17
534.84
599.16
625.87
574.96
585.66
703.68
661.94
685.95
635.42
602.55
559.81
653.86
596.52
584.50
575.98
613.84
739.65
2506.88
659.94
472.46
492.76
518.32
498.02
499.27
522.48
519.90
635.64
693.77
786.08
723.10
1161.91
560.68
490.28
563.77
470.63
515.52
441.81
526.01
535.91
687.97
755.37
799.65
909.45
1318.80
1098.87
699.40
521.45
379.99
434.30
386.35
378.33
437.20
458.31
567.37
551.46
1333.04
789.74
748.60
657.52
596.79
490.28
451.27
416.72
536.54
624.73
600.18
614.08
741.50
782.10
689.12
766.53
684.69
502.59
456.31
431.77
479.64
431.02
451.34
478.00
545.49
2464.93
660.98
792.56
907.63
761.91
609.68
516.68
580.50
580.38
577.30
466.54
470.38
479.81
1401.38
678.33
745.28
634.06
669.20
706.33
766.66
685.07
635.53
524.18
582.69
565.10
569.25
766.93
740.97
646.62
667.59
532.76
634.01
580.29
588.34
462.24
619.02
641.71
651.83
2556.68
714.27
628.28
501.19
441.00
456.08
462.56
423.99
594.33
808.04
509.98
643.36
695.56
1386.29
490.87
581.85
443.06
579.93
589.36
665.00
597.01
613.78
515.54
531.19
448.36
542.94
758.48
678.28
617.93
748.26
694.51
791.26
674.47
548.83
522.53
609.13
771.35
880.74
2489.01
696.68
454.44
536.58
444.66
407.58
434.31
465.33
450.91
475.45
629.90
765.02
646.86
1386.96
790.83
671.57
679.20
729.14
707.11
689.34
688.20
617.72
595.87
601.40
588.11
485.94
591.02
571.34
539.54
523.10
551.87
746.44
650.24
632.59
582.75
675.10
648.71
624.12
2505.57
775.69
791.96
856.06
760.93
737.19
578.45
590.61
366.62
489.75
548.39
427.40
383.89
1295.13
651.72
593.42
576.64
497.59
589.03
639.13
581.77
688.59
829.03
689.69
561.47
606.92
463.90
427.98
564.19
677.84
655.05
687.00
656.52
570.75
537.11
582.59
645.10
659.98
2417.25
756.10
498.95
428.76
472.57
415.12
483.02
539.67
603.73
751.06
730.34
687.07
492.93
1233.12
540.38
713.97
944.31
993.40
985.53
773.41
410.14
408.01
467.42
690.97
692.28
2526.83
615.69
489.69
446.79
406.29
527.29
575.28
441.62
465.22
485.03
392.64
459.99
495.92
1123.28
636.76
644.03
616.78
626.00
558.93
576.75
744.40
758.41
851.62
724.05
504.95
612.96
592.03
412.49
476.37
520.40
661.18
667.70
718.92
713.56
604.39
606.31
648.52
608.41
2508.09
525.49
401.79
435.14
638.41
619.97
694.15
679.23
649.84
659.34
540.42
417.76
480.92
1019.23
605.54
654.41
718.33
623.07
682.46
686.87
615.90
525.72
555.85
627.21
724.64
782.56
896.21
813.09
821.13
654.82
435.79
363.08
433.14
479.88
544.50
644.44
620.20
637.79
2418.55
604.47
531.04
517.93
486.14
454.58
482.67
440.15
536.61
550.05
574.44
589.79
564.86
925.55
475.18
552.49
619.08
704.18
793.62
870.35
847.36
762.77
634.04
621.52
486.84
425.20
544.13
452.21
548.59
486.05
432.53
482.05
445.82
459.35
484.23
441.53
551.32
472.86
2449.90
728.34
831.30
720.99
749.21
681.25
764.18
816.16
881.79
697.69
519.67
370.06
511.51
1284.05
661.01
617.45
577.03
523.24
520.54
572.20
683.74
577.11
588.23
586.64
637.65
585.52
753.03
380.35
567.67
431.13
485.28
618.25
702.96
700.49
722.95
619.86
485.43
419.65
2301.26
561.58
534.72
522.71
578.72
569.21
646.94
734.86
890.04
946.01
839.47
559.92
462.93
1024.56
556.84
576.94
789.95
801.50
681.21
494.30
474.63
394.24
451.24
380.63
430.66
508.92
449.55
377.84
499.29
653.73
664.83
640.60
608.24
701.27
738.70
781.37
761.85
710.77
2356.72
654.81
736.46
568.47
633.97
633.92
618.43
617.65
572.95
571.22
548.25
563.26
578.56
1224.60
657.13
565.76
582.24
529.26
559.88
536.17
506.58
605.12
597.76
550.28
593.27
554.33
725.92
685.14
692.64
547.05
642.36
619.77
685.42
627.55
635.34
660.74
662.58
687.93
2369.50
658.89
712.92
891.49
728.32
597.81
482.83
444.35
511.62
437.36
600.18
509.15
573.68
1133.44
533.55
396.76
376.90
425.99
402.54
459.33
479.73
518.37
639.56
555.94
471.32
403.95
563.66
590.12
487.24
456.84
415.79
412.12
473.40
555.41
552.32
559.19
674.16
804.19
2479.25
875.25
664.88
501.13
552.25
617.67
563.89
511.94
424.08
507.23
743.06
848.59
888.83
1366.63
567.29
414.05
431.88
439.36
510.81
742.93
685.90
539.37
551.28
801.56
701.43
519.18
495.13
427.68
474.75
409.04
434.24
455.27
501.33
519.31
476.68
393.84
392.58
423.43
2164.09
621.96
670.43
662.59
662.30
578.46
585.86
681.74
688.56
696.13
783.32
543.06
519.64
1159.88
671.83
718.10
681.50
656.90
661.09
567.39
562.97
535.56
555.61
662.54
850.30
605.34
611.19
434.24
477.55
633.15
764.15
515.35
448.73
388.47
546.22
411.33
499.72
569.37
2332.65
699.46
778.27
738.66
803.96
773.68
896.68
839.08
826.74
499.52
457.83
543.81
658.43
1197.65
628.94
549.69
485.36
436.86
463.68
473.91
473.67
409.23
403.08
440.43
535.05
546.97
676.45
569.61
610.24
595.84
665.14
610.25
556.37
446.43
456.27
410.18
557.32
579.92
2205.22
700.24
708.40
558.00
517.50
495.32
583.56
523.19
558.92
553.04
632.42
669.80
529.49
1085.50
579.75
616.31
631.94
607.80
540.86
533.99
560.61
533.89
591.65
452.08
455.82
492.65
594.84
528.97
645.17
684.14
786.66
734.50
735.36
965.93
884.70
612.03
416.71
345.99
2095.40
433.25
384.61
404.03
472.43
544.27
722.79
772.40
555.37
382.54
377.02
409.86
397.62
1144.56
615.38
639.22
685.72
596.92
568.72
576.74
636.92
647.52
754.55
663.51
639.04
689.44
1051.16
733.19
613.88
425.94
464.28
343.02
332.75
435.59
427.60
555.92
652.05
707.57
1887.19
694.45
615.47
600.61
652.12
593.47
544.52
505.68
581.52
592.78
622.17
512.08
523.21
776.19
818.94
920.98
1019.96
661.19
520.13
356.75
422.59
463.94
480.87
440.47
609.33
1851.44
739.93
687.72
902.36
934.88
741.28
582.93
665.52
708.08
568.90
345.73
368.66
371.22
578.27
423.61
454.85
426.37
405.68
468.90
537.49
492.38
468.69
525.32
477.38
392.60
470.27
574.56
503.57
412.25
477.75
450.06
567.52
679.68
658.35
611.36
619.78
607.85
628.96
2029.20
645.97
603.64
601.08
611.81
647.24
538.87
542.41
454.78
465.86
498.73
519.02
638.87
1333.96
638.49
732.31
646.24
584.43
434.22
500.66
495.00
635.47
630.35
595.35
735.70
863.97
812.43
651.71
596.40
496.91
412.78
615.39
667.61
672.11
615.92
610.14
635.15
678.13
2008.95
579.92
417.81
495.70
451.00
490.65
562.85
692.51
508.24
507.51
547.49
710.18
742.73
1394.09
479.11
438.55
432.70
355.51
455.68
554.96
597.48
557.90
614.10
609.95
727.91
726.56
884.26
674.61
482.66
415.26
445.09
565.99
656.72
766.80
596.19
430.95
286.94
397.65
1671.28
332.34
447.54
496.51
567.86
614.47
678.62
540.24
478.35
429.67
367.64
540.81
693.90
1358.73
621.10
569.73
509.00
560.89
519.66
566.81
507.32
674.05
804.27
995.95
1280.25
2539.43
1338.29
802.65
433.71
1204.34
1327.76
801.98
417.71
421.28
534.07
886.12
862.72
1940.00
664.07
600.74
538.55
550.65
441.08
519.60
514.29
565.02
488.02
408.19
415.18
347.64
670.61
634.30
664.86
579.84
521.73
494.12
658.78
693.69
596.66
617.58
663.18
561.23
462.32
503.22
595.85
636.65
587.98
518.85
364.17
562.41
557.11
570.06
436.34
499.07
538.42
1823.08
570.36
655.50
623.86
542.94
538.43
508.69
515.70
527.34
542.54
692.44
798.10
743.95
1326.13
745.56
467.24
487.28
456.63
516.62
488.42
570.65
524.53
636.33
710.99
813.59
894.59
881.05
608.94
466.46
341.60
436.13
530.47
675.41
718.04
594.46
555.93
512.63
455.89
1977.12
523.12
540.30
436.01
501.13
516.08
553.42
413.52
427.36
478.55
431.85
535.50
616.37
1325.07
826.13
722.52
747.85
612.73
531.36
384.69
519.95
441.57
529.37
394.01
582.66
543.90
714.91
667.40
635.06
538.18
471.13
494.04
639.36
554.63
625.91
623.78
660.76
608.11
1961.43
904.83
761.30
636.94
791.10
685.88
717.30
565.19
483.45
403.67
681.84
724.53
734.31
1385.14
715.94
598.29
544.16
449.73
406.63
436.97
485.06
480.50
508.42
450.63
334.50
748.46
570.02
478.32
342.02
528.48
551.54
483.29
444.13
399.25
419.89
358.54
439.03
572.96
1949.44
769.49
794.18
775.82
942.80
999.85
888.76
797.29
605.96
413.65
476.70
484.21
518.80
1149.97
630.66
522.98
481.46
374.98
527.30
552.68
568.03
595.49
690.84
656.57
618.85
554.55
651.66
631.66
710.24
604.66
646.44
598.29
586.13
576.34
398.78
677.67
786.48
729.92
1851.49
417.42
431.89
393.56
491.01
481.22
519.88
525.65
537.25
492.09
671.87
886.29
866.01
1390.79
728.07
488.71
367.54
470.78
596.57
325.48
391.47
513.86
561.07
599.56
610.72
680.25
801.81
653.08
655.11
647.10
643.76
585.99
680.33
661.94
696.60
604.65
450.02
514.67
1756.93
628.17
683.56
491.89
525.95
553.38
597.32
722.56
689.54
582.22
608.14
488.06
546.76
1231.82
747.28
768.67
813.01
527.31
478.71
300.43
444.82
425.66
467.56
479.12
510.04
436.72
608.33
601.71
646.31
628.12
715.61
646.90
610.87
582.05
673.23
512.53
465.43
430.59
3537.44
651.88
587.96
543.52
554.23
574.77
641.98
481.80
410.57
364.80
359.96
281.47
478.58
1283.89
589.97
580.84
579.00
708.23
813.77
785.65
715.26
493.80
438.98
376.70
392.40
529.11
764.54
598.55
591.45
620.56
630.53
667.12
701.52
685.07
834.90
696.85
615.14
441.07
3780.72
511.86
469.37
534.46
635.31
718.87
806.21
796.94
899.68
957.86
1012.16
640.67
596.71
859.69
421.09
583.53
580.37
467.60
701.83
661.79
674.25
611.27
538.00
539.01
440.11
380.17
528.54
421.27
421.33
423.56
472.84
605.92
649.33
629.66
581.22
435.82
514.60
470.22
3762.66
584.71
762.44
771.10
810.90
835.22
735.66
484.69
407.38
349.20
367.19
396.59
521.12
1279.93
660.61
563.07
388.94
326.49
360.58
356.29
582.85
559.96
621.03
576.84
568.88
477.44
648.15
523.38
628.98
611.11
602.88
560.26
588.34
568.13
665.82
571.89
654.15
538.34
3610.10
679.03
679.44
634.80
580.04
471.43
503.20
585.64
626.71
615.79
715.53
541.34
524.32
1264.22
689.79
696.61
613.69
457.51
537.93
452.48
498.33
515.91
447.53
425.86
401.05
418.44
782.03
707.97
759.95
725.42
576.31
451.54
550.33
647.11
727.81
686.72
548.43
416.32
3512.17
491.72
512.30
471.26
542.19
514.57
551.36
613.90
663.74
528.54
601.69
592.02
685.30
1404.80
766.66
501.20
529.84
449.16
614.73
517.98
512.89
489.19
716.34
956.68
878.02
644.75
448.26
691.93
622.72
328.03
449.74
478.02
550.22
583.81
726.28
777.57
846.34
993.60
3668.54
374.62
387.87
433.89
531.90
580.23
593.41
655.06
643.15
583.29
548.27
499.34
494.19
602.04
510.67
551.55
540.76
661.83
742.26
611.01
708.21
618.68
488.31
342.80
349.20
331.17
564.25
436.02
552.30
605.25
555.63
606.38
605.61
514.33
566.57
522.29
447.50
494.81
3509.01
533.65
573.35
515.83
644.38
686.40
713.05
622.50
597.47
631.51
652.82
683.98
558.91
1243.56
573.71
524.92
598.37
592.68
724.74
769.89
803.80
720.22
743.80
850.54
790.54
565.27
471.47
779.47
748.76
400.48
438.68
491.16
602.46
585.22
673.77
551.16
445.16
517.63
3606.97
617.03
567.80
444.69
331.17
436.04
405.20
436.98
385.07
404.41
456.16
527.52
526.66
1289.45
524.46
582.34
581.23
597.06
670.28
747.59
780.03
748.68
717.06
679.82
622.54
434.79
681.16
552.10
523.20
557.98
508.08
391.01
606.69
587.23
629.81
712.38
936.69
966.82
3534.30
401.91
764.48
769.91
381.82
584.75
815.59
765.26
740.23
645.39
657.08
624.99
656.80
1303.40
685.52
408.92
433.61
463.03
640.00
619.71
587.36
449.66
493.89
645.95
690.89
415.78
513.28
535.14
562.94
597.07
714.44
682.50
730.23
613.48
615.62
518.78
586.87
628.27
3489.11
604.97
632.23
654.81
603.22
491.94
428.06
382.83
466.47
512.50
394.44
390.10
437.41
1151.75
574.22
541.73
576.02
543.96
543.34
544.94
594.51
629.13
583.84
510.50
530.64
520.78
684.47
629.99
745.84
656.34
649.61
508.66
581.97
563.45
677.37
639.83
645.85
682.63
3443.11
513.48
330.33
539.26
612.53
707.31
724.31
678.36
692.37
663.99
635.20
491.85
633.68
1308.74
653.40
591.83
541.98
455.15
457.92
440.17
481.30
499.71
427.95
343.25
393.46
355.96
601.84
576.99
642.97
626.33
610.78
513.64
578.97
551.06
679.97
664.36
684.73
569.17
3443.54
545.62
556.84
545.71
595.16
525.42
488.26
453.59
410.23
404.43
448.76
410.37
494.00
1122.36
530.41
566.07
555.23
468.19
630.08
700.93
835.76
673.29
547.22
515.14
566.95
629.69
830.13
731.15
625.71
489.95
401.16
436.42
470.46
540.74
648.24
641.29
585.93
579.93
3506.17
683.39
874.22
814.53
817.07
702.09
592.28
463.97
428.51
404.70
438.70
522.00
656.90
1181.79
413.98
422.72
460.76
439.88
531.13
626.95
667.09
638.12
511.52
375.85
427.03
592.66
904.06
989.25
1203.66
1135.14
1066.72
671.59
418.97
484.11
496.89
395.21
490.84
589.89
828.13
704.41
650.78
464.07
439.15
480.59
500.59
462.06
459.58
479.69
533.17
519.21
3371.42
575.55
465.57
506.01
644.15
646.78
635.37
599.91
547.69
608.28
735.42
715.13
755.55
1354.35
566.16
530.16
589.74
554.22
491.40
465.24
596.71
584.11
580.40
582.46
588.41
652.08
924.07
658.57
776.86
752.19
826.88
806.92
695.32
542.03
498.67
416.78
479.18
345.39
3755.64
772.72
996.37
721.74
379.07
452.54
401.94
402.04
459.01
509.06
527.00
502.69
582.27
1318.31
734.13
764.78
687.58
630.08
680.20
654.22
536.66
564.49
574.75
534.46
640.35
620.93
630.78
566.55
634.57
701.00
512.26
398.48
436.80
523.68
764.60
994.34
1166.36
995.32
1379.18
423.26
448.08
413.57
406.15
335.93
396.15
406.64
515.49
613.66
622.71
609.90
3388.59
752.27
820.21
711.74
614.82
385.43
368.90
430.81
545.55
549.62
498.10
447.96
456.86
1178.82
683.15
576.59
582.43
520.91
496.48
610.25
597.29
486.44
449.13
606.76
559.74
510.52
580.51
571.66
683.69
582.53
584.67
464.44
488.37
491.90
530.55
545.62
526.35
562.06
3499.84
626.59
569.23
572.08
597.50
520.52
503.65
507.64
467.77
570.62
607.15
722.61
769.27
1148.08
748.97
661.86
666.80
549.07
554.94
566.07
613.76
455.48
498.55
445.60
465.04
460.93
557.75
623.90
789.27
735.44
831.16
632.11
519.73
472.67
490.55
409.06
544.60
580.71
3308.94
601.35
558.03
542.66
567.40
584.21
685.87
638.68
497.13
586.14
503.06
588.76
643.50
1220.93
503.34
595.79
482.04
472.90
482.89
438.07
434.93
435.41
453.73
460.18
557.37
561.43
671.31
621.63
672.65
537.12
466.89
432.20
429.12
452.13
484.12
469.38
525.01
407.29
3397.03
653.56
648.22
729.03
772.05
853.39
910.78
968.99
1070.05
777.76
449.59
1090.02
1274.86
574.26
541.56
882.75
953.15
918.18
1023.34
922.46
740.76
436.06
458.64
378.69
430.88
517.52
466.23
365.06
433.90
459.88
418.10
440.70
436.81
432.47
573.11
480.19
571.57
3437.20
620.77
571.46
620.82
619.63
575.93
596.14
686.45
582.00
646.73
652.47
680.59
730.20
1437.31
748.49
643.01
475.62
554.18
351.44
420.37
492.58
598.00
698.21
772.02
656.54
724.09
619.00
487.49
440.52
426.47
379.35
520.03
475.18
546.22
484.14
525.74
526.32
547.79
3231.34
1008.41
955.79
904.67
647.28
610.68
433.61
498.30
441.05
643.59
694.09
651.49
549.75
696.17
412.09
450.23
613.54
883.54
901.59
839.19
649.25
509.62
398.06
419.93
471.24
472.41
458.65
471.94
583.26
613.65
459.40
568.66
447.46
571.07
625.45
664.37
582.48
672.31
3295.39
634.16
537.78
571.66
512.99
466.73
392.34
480.31
438.36
596.58
624.44
731.59
599.13
1378.75
428.42
387.15
545.78
565.28
567.77
544.12
601.04
611.22
600.92
563.99
604.05
763.89
961.36
1033.18
991.50
786.28
472.93
468.05
381.82
369.19
502.42
770.62
834.64
821.94
976.42
550.79
875.99
599.90
365.09
514.75
536.95
515.51
381.95
408.13
402.95
446.81
421.54
802.52
594.26
527.96
479.18
520.48
563.17
608.17
497.46
456.85
451.49
541.91
584.31
801.58
881.84
930.16
766.89
654.97
787.04
869.09
819.21
579.24
399.24
451.74
442.58
642.58
3146.21
951.04
785.38
604.73
420.74
398.07
386.88
527.49
647.41
532.45
400.69
406.07
455.25
665.01
412.71
517.27
449.83
506.96
556.83
771.21
790.37
775.21
645.57
653.96
501.02
507.47
540.79
552.47
506.07
516.52
407.62
433.30
335.11
409.64
393.61
454.71
491.45
578.75
3214.80
543.47
621.74
736.31
605.09
607.54
606.08
597.88
531.34
481.61
530.85
417.27
638.36
1489.25
820.59
814.03
725.58
715.05
499.28
392.10
373.01
459.88
455.18
558.50
517.04
528.63
738.52
882.93
831.57
714.32
626.15
578.30
644.95
695.41
572.50
733.93
491.32
539.79
3128.42
404.72
444.83
494.84
472.82
608.40
461.13
528.47
436.73
412.14
394.23
523.04
476.02
1435.24
666.38
683.29
641.52
516.29
461.15
693.04
634.49
582.15
721.40
752.73
664.82
526.34
491.77
458.83
452.53
481.03
466.56
575.79
549.70
612.82
589.62
547.65
483.88
492.16
3119.02
755.28
711.50
564.05
396.94
560.86
462.60
370.35
530.20
605.47
575.51
640.16
569.80
1381.67
490.15
532.04
532.92
652.23
689.23
751.64
709.58
761.84
763.46
639.54
591.71
587.90
637.30
729.25
757.65
730.92
648.40
585.04
479.83
431.04
403.17
472.75
479.74
396.16
3204.71
454.85
463.72
616.12
767.39
860.42
925.36
917.12
739.78
522.21
413.18
479.62
365.73
1306.90
625.03
688.84
608.60
488.44
488.33
445.80
426.84
526.71
479.65
542.80
510.59
486.42
655.32
558.79
609.51
535.42
483.25
551.14
557.88
575.73
525.55
599.64
547.60
547.40
2994.39
753.15
697.96
822.01
782.48
599.53
481.38
531.02
536.60
674.66
737.49
829.95
718.75
1315.14
499.39
456.07
415.38
619.70
470.27
419.13
364.89
553.55
783.27
804.25
655.07
535.36
1166.54
762.86
408.15
438.87
445.99
475.97
595.44
570.09
612.42
815.20
771.10
738.43
2077.29
719.06
587.84
644.96
602.04
653.27
715.17
657.09
553.59
463.02
397.24
439.52
400.80
698.80
520.15
530.37
484.53
524.88
533.72
558.76
470.91
529.96
535.49
569.96
610.07
620.52
783.42
748.28
693.96
641.04
598.54
532.66
448.59
530.68
593.89
609.35
567.14
467.55
3102.75
524.65
462.07
606.79
582.86
700.94
644.67
571.91
631.76
705.30
511.68
430.98
375.52
1360.97
550.76
503.95
498.82
529.13
500.08
542.31
594.66
667.84
749.21
772.45
775.18
474.55
529.48
419.10
450.51
688.35
1055.06
1140.59
839.79
602.94
642.22
549.32
425.71
475.90
1096.86
598.80
562.25
495.47
382.45
453.14
391.82
471.70
387.07
423.26
390.33
482.02
543.74
652.46
563.63
574.67
492.55
473.59
490.29
477.91
586.56
642.01
687.86
621.85
674.54
3022.44
596.40
524.52
615.91
624.02
603.64
691.83
795.20
883.40
711.31
553.32
455.03
545.74
1052.13
399.11
487.77
563.12
660.82
562.79
479.16
482.60
613.94
792.60
619.14
571.03
483.47
497.11
511.85
555.36
528.63
599.36
626.73
630.04
672.65
840.08
673.15
630.31
568.81
3075.89
702.04
637.33
542.90
538.83
492.84
546.11
568.50
588.50
491.33
570.21
762.68
706.25
1036.35
995.51
823.65
743.62
626.89
613.81
510.77
597.83
609.96
719.56
573.13
605.99
499.33
671.35
613.27
578.78
558.90
553.00
537.43
484.89
472.47
446.59
439.58
548.57
541.49
3097.22
564.88
504.10
482.53
577.89
418.48
576.90
571.74
572.19
570.34
545.71
677.70
664.48
1109.90
639.23
716.92
673.79
607.74
570.84
704.16
794.45
696.23
694.38
525.56
449.13
394.24
534.92
499.49
436.18
455.91
432.38
430.65
522.31
561.88
614.18
575.15
624.56
594.12
3058.92
460.15
556.66
495.51
578.62
483.47
554.89
572.30
642.10
646.69
744.50
628.30
490.27
999.24
560.98
660.65
838.09
721.36
674.92
680.82
918.74
1088.70
1249.58
1164.92
930.02
3456.07
519.16
385.60
471.39
432.69
508.34
670.87
847.05
736.89
547.49
414.52
419.52
669.41
1033.83
813.21
582.78
443.36
440.33
439.78
639.27
595.44
575.64
574.70
581.35
501.55
3021.60
649.90
734.09
559.45
589.88
485.09
519.31
679.53
816.24
895.50
846.66
806.80
705.16
1044.29
599.97
484.00
506.12
492.35
476.19
530.06
503.45
566.67
608.80
605.42
613.61
490.52
519.72
430.44
576.27
685.67
715.87
614.82
498.10
532.78
554.24
564.34
650.77
622.73
3001.04
663.83
576.39
500.44
511.63
468.32
493.98
507.28
605.05
606.86
825.99
745.39
626.95
1041.66
520.51
439.53
462.02
424.95
424.49
367.79
534.36
525.76
498.90
492.39
494.30
499.98
673.54
584.83
599.25
524.22
527.41
549.47
563.09
622.62
611.64
536.55
581.37
487.26
3012.26
442.94
377.86
624.87
760.18
734.15
796.09
651.97
631.23
531.45
571.18
698.45
952.91
1365.68
663.12
434.01
868.96
1052.90
517.38
385.72
489.04
547.96
564.66
479.01
528.73
2908.60
683.69
639.18
640.94
590.17
712.00
539.86
651.12
639.84
651.71
520.25
554.18
582.84
1436.81
690.35
726.90
775.94
665.53
648.62
630.57
546.73
570.84
497.75
461.22
502.16
554.47
607.67
610.41
613.14
701.65
494.44
479.00
454.71
526.43
554.82
555.91
463.45
475.21
2795.47
580.95
489.88
592.05
531.61
670.53
702.97
635.22
617.12
597.85
561.80
476.52
508.45
1445.63
510.80
570.75
495.02
659.38
644.65
738.55
638.42
625.94
431.63
427.52
445.31
520.21
631.70
497.21
482.59
508.00
460.71
503.79
579.34
545.71
471.32
593.05
603.94
573.24
2854.54
714.11
586.35
555.13
587.80
643.68
586.55
520.42
572.76
601.45
540.58
525.47
502.78
1464.60
671.16
645.63
683.78
851.72
867.55
745.48
482.13
598.57
725.05
492.46
411.42
421.60
552.92
586.03
577.75
696.67
695.43
651.58
621.21
739.75
823.29
982.57
831.19
687.26
2781.27
647.36
878.51
837.41
784.79
629.93
473.92
597.21
699.83
775.74
670.34
410.88
497.75
1419.81
580.87
676.78
508.80
612.77
615.92
668.72
567.73
619.46
583.88
564.23
607.51
643.73
630.72
627.59
555.34
576.37
544.87
587.90
585.21
611.22
539.61
587.20
490.63
602.89
2726.39
680.84
628.83
711.20
744.95
608.34
569.95
560.69
517.12
485.40
640.59
865.52
970.35
1720.31
915.69
630.04
488.11
560.89
590.00
667.68
630.77
580.56
488.93
485.06
401.59
2849.47
433.12
587.66
848.96
603.10
415.31
592.64
589.02
668.03
590.88
502.78
527.51
594.40
1287.56
804.64
693.06
641.25
636.71
613.76
529.78
485.86
456.91
425.76
400.60
454.19
495.68
684.39
717.05
647.04
581.87
672.46
598.28
600.90
517.72
488.12
525.42
621.88
460.05
2762.11
455.79
592.15
605.35
711.12
631.18
655.98
579.13
596.84
636.74
661.14
604.26
657.59
1308.73
1045.15
1025.95
1218.13
734.27
644.04
1090.84
959.19
432.40
539.91
551.97
626.97
840.04
720.44
688.30
599.84
561.17
521.49
492.90
526.21
446.41
531.23
682.42
771.63
596.26
553.19
646.81
449.18
516.77
594.07
665.15
776.55
625.56
623.52
538.43
484.22
565.84
2798.73
689.71
686.22
725.77
763.32
770.54
749.54
598.83
561.01
450.38
480.22
481.16
533.58
1221.19
671.52
486.93
502.07
511.98
544.18
483.68
546.90
536.65
541.97
619.44
546.05
463.16
588.96
585.54
700.46
626.68
633.07
667.57
710.75
664.76
653.40
621.97
554.57
450.51
2732.71
513.86
654.75
705.13
745.97
716.42
744.67
615.00
523.02
542.05
612.90
510.86
479.81
933.07
538.87
607.83
732.30
653.65
678.35
611.28
591.64
587.88
557.01
441.26
556.21
546.07
731.90
633.11
647.96
552.12
596.94
630.17
577.44
529.59
561.73
610.78
668.04
575.74
2789.86
682.05
529.37
432.58
522.52
525.16
576.72
535.57
584.39
525.72
544.65
469.81
758.25
1375.87
1029.42
878.83
772.08
553.00
611.98
530.72
419.50
435.70
467.45
543.15
552.28
2720.48
656.15
521.16
478.20
505.57
545.57
522.71
506.25
535.08
566.40
519.25
560.57
573.30
1432.87
645.61
680.60
749.26
801.07
873.49
1045.75
936.67
816.70
448.26
533.21
701.02
2872.90
456.39
714.08
668.05
786.89
594.07
511.81
406.98
446.96
521.72
606.67
542.43
638.41
1209.74
647.61
597.61
748.86
663.70
841.21
839.96
713.57
649.86
674.10
559.83
633.52
573.23
687.89
687.27
700.31
739.80
616.14
588.27
562.14
498.59
449.16
422.37
494.68
562.27
2690.27
885.70
843.89
819.26
633.39
478.65
594.84
613.77
498.86
430.80
451.97
483.88
479.72
1078.04
552.85
665.16
581.03
589.05
508.51
437.57
570.01
706.60
815.11
1021.09
1011.56
742.15
644.59
472.72
484.35
465.06
412.25
512.48
541.70
544.54
595.65
552.62
617.66
634.00
1789.51
641.72
645.12
647.08
593.47
544.34
709.13
622.45
846.67
774.29
572.27
403.69
475.63
693.38
613.59
722.49
832.73
594.55
438.70
335.85
490.55
543.41
783.14
811.55
788.95
600.17
688.93
576.62
617.51
517.34
490.97
411.41
466.16
535.97
503.86
378.02
489.82
448.85
2739.93
687.91
738.00
772.45
780.69
656.86
660.69
617.27
548.88
590.18
728.30
609.47
619.74
1251.26
939.44
940.55
889.95
469.11
433.98
432.16
497.48
407.73
433.84
508.36
504.73
639.37
782.32
678.98
676.35
620.03
639.83
701.90
730.80
622.32
398.35
492.96
502.90
539.04
2606.21
432.44
570.35
535.60
684.97
683.21
723.48
644.40
618.72
578.17
569.07
529.00
532.06
1148.18
676.03
533.90
586.47
558.89
814.79
726.97
888.56
963.37
601.63
464.04
583.82
2592.77
767.95
656.86
711.11
535.76
496.02
443.87
564.32
458.14
485.14
438.72
437.88
477.42
1456.33
573.15
625.22
579.34
685.03
582.44
548.44
493.25
518.49
591.42
622.24
586.60
572.14
650.09
676.82
665.96
723.33
734.47
644.56
572.15
446.89
455.73
569.92
555.66
627.20
2523.68
744.51
735.82
721.57
467.91
590.24
602.16
720.73
626.75
618.81
605.99
554.97
581.02
1474.77
672.60
609.21
446.57
465.36
447.60
647.07
858.74
1072.82
851.97
530.99
416.44
2670.65
566.98
695.42
729.73
722.51
620.08
597.52
725.26
926.59
857.83
548.08
654.04
971.96
1491.32
720.73
490.85
552.29
597.70
561.10
546.13
744.07
642.69
653.00
608.82
664.90
541.88
680.52
608.00
652.01
706.96
667.42
737.15
657.15
627.20
640.89
666.12
663.14
786.16
2560.46
955.52
912.20
753.61
621.84
351.72
401.97
492.12
451.76
435.54
539.72
566.08
533.61
749.58
682.19
674.76
691.52
687.43
700.85
631.49
655.53
441.79
461.45
500.21
559.31
596.01
717.28
711.54
660.72
670.24
718.98
729.54
778.64
646.80
707.87
551.47
665.85
650.02
2532.30
680.24
665.76
762.37
727.79
458.70
485.33
478.97
576.16
386.34
430.82
495.53
470.82
1049.20
429.33
485.13
504.13
341.52
439.48
576.88
751.47
707.42
686.95
649.18
696.46
513.73
709.97
566.95
636.86
621.63
767.14
720.56
604.32
629.40
535.72
457.49
444.57
442.37
2432.06
622.69
814.84
725.32
871.58
863.60
832.85
701.91
511.75
569.67
430.47
453.17
567.39
1119.27
596.59
518.60
564.24
633.97
717.36
649.89
630.65
652.39
631.58
519.00
561.23
570.20
657.51
577.14
618.75
661.95
658.61
641.51
626.30
558.80
649.17
630.53
706.04
629.01
2371.06
549.40
556.91
612.20
547.47
453.98
446.76
459.94
413.43
410.97
490.85
563.61
537.06
1138.59
629.05
543.87
592.09
521.01
515.95
542.70
619.36
620.77
676.15
652.15
860.14
910.28
1151.21
692.75
666.06
1264.81
762.98
519.63
798.25
1160.44
1228.84
869.63
522.60
498.89
472.10
470.54
520.44
735.52
877.29
746.86
747.41
640.45
727.29
596.27
584.07
534.28
2431.52
540.21
596.04
604.48
572.08
398.14
494.29
391.48
477.42
648.04
743.33
650.85
731.29
1258.69
587.72
538.36
665.91
606.81
595.00
587.85
570.32
483.60
499.08
455.03
465.59
478.74
690.14
688.34
708.23
656.56
778.60
871.24
732.87
634.80
704.71
577.18
568.54
493.68
2406.14
599.83
566.65
605.52
592.87
466.87
529.81
477.80
512.82
520.23
643.98
551.11
643.70
1236.68
744.23
584.01
812.09
821.32
854.72
819.69
760.01
673.35
597.53
432.17
458.30
927.94
952.96
457.17
746.16
772.97
634.92
655.36
716.25
641.17
655.87
658.09
627.52
542.08
2378.72
599.07
493.41
378.71
393.96
443.60
623.93
739.16
747.04
406.58
598.49
491.15
432.12
1146.41
729.50
703.85
726.88
745.82
697.43
655.99
686.65
589.88
608.53
593.09
603.67
633.62
812.87
693.35
715.32
569.98
631.53
670.37
680.18
539.38
531.66
508.31
575.64
433.16
2328.96
556.72
619.21
563.41
464.73
555.60
553.96
672.29
624.97
578.31
632.70
569.76
706.13
1190.24
713.16
598.62
596.17
621.90
642.47
621.06
662.33
561.14
642.40
704.12
703.14
643.08
782.72
624.43
605.45
504.58
586.52
540.47
594.54
624.67
516.21
541.89
677.93
611.12
2328.26
493.77
419.61
427.52
591.69
686.61
836.40
712.22
642.10
553.31
592.02
585.89
530.72
1052.65
425.90
519.99
711.81
759.75
744.78
692.75
586.75
594.27
646.45
580.45
566.66
567.67
635.43
506.45
530.25
484.05
522.77
513.18
542.21
548.46
661.26
627.89
586.42
461.69
2370.89
564.71
581.42
700.52
868.23
852.80
861.59
739.71
471.49
453.70
456.69
729.46
875.88
1322.90
615.13
530.63
562.81
486.00
595.02
628.88
562.70
574.18
609.16
465.68
553.51
535.70
553.19
414.17
414.89
512.24
741.78
955.08
820.25
688.37
606.25
443.91
392.08
465.43
2273.06
548.46
589.79
581.63
615.29
427.74
479.75
506.02
623.53
628.10
660.84
613.29
713.46
1324.58
971.56
913.37
765.15
415.26
470.30
453.61
595.38
681.32
614.71
494.79
468.92
2255.56
882.05
691.75
833.25
651.62
634.51
408.53
355.70
388.61
404.11
390.38
395.41
466.96
1466.37
526.50
622.33
498.31
623.18
587.12
575.71
535.42
673.68
521.85
533.55
512.14
610.57
622.16
673.55
597.32
816.56
775.66
899.50
692.21
612.91
526.73
456.72
422.81
395.87
1981.69
632.83
607.55
550.18
591.67
695.39
741.93
715.73
645.90
622.70
482.24
635.45
620.43
1526.84
658.62
694.59
728.97
781.78
773.12
749.51
387.58
490.82
390.71
427.13
574.55
795.55
1013.02
964.73
966.05
934.73
689.02
610.50
434.76
406.56
418.51
443.85
368.41
406.46
1797.62
434.81
378.46
449.75
552.01
650.86
714.83
642.99
651.82
688.81
675.41
692.24
809.38
933.44
392.79
786.48
960.98
383.98
604.14
760.20
691.50
683.18
645.36
692.09
791.94
902.20
1114.65
916.21
704.15
461.49
398.06
455.66
637.34
745.23
541.28
464.02
333.37
438.38
1714.08
483.08
589.58
703.96
687.16
791.41
693.63
666.81
337.45
391.22
453.28
764.25
798.30
1004.51
664.27
629.22
563.49
541.12
435.78
622.26
548.50
557.76
435.06
415.11
400.24
2259.00
541.43
509.79
506.30
616.24
556.54
543.21
543.61
574.61
646.31
526.59
382.73
636.21
1361.54
874.13
799.15
668.10
475.91
405.11
380.97
403.25
415.48
498.68
480.70
464.96
447.09
566.09
477.50
527.33
527.89
551.28
659.68
556.76
565.22
512.48
556.58
547.20
542.31
2165.93
627.93
642.45
665.01
699.81
591.97
663.23
628.66
692.78
688.52
815.46
773.40
800.44
1385.28
811.66
480.24
353.58
651.14
392.31
415.71
597.11
594.04
433.04
433.65
521.60
577.21
758.59
646.78
646.79
660.58
618.10
529.21
650.69
578.66
653.53
642.31
632.12
614.41
2061.48
604.30
601.83
564.80
611.86
650.62
665.01
547.20
554.01
561.92
495.34
488.07
494.93
975.63
375.01
349.03
499.95
393.13
521.93
453.14
527.97
616.77
604.40
494.50
542.96
509.70
685.81
702.75
866.90
857.91
863.56
848.79
479.86
425.96
471.21
729.87
1061.37
889.22
2245.24
372.57
385.95
429.20
877.93
1076.25
1231.76
1095.49
821.08
712.11
590.85
471.47
1824.03
451.37
379.91
390.51
478.90
418.43
447.10
378.46
366.78
375.59
374.20
374.40
401.01
497.50
432.41
427.83
454.70
507.48
683.74
650.80
651.51
609.86
620.99
626.19
609.17
545.11
568.35
536.91
596.43
444.96
482.60
466.22
538.70
588.44
607.12
575.33
714.01
772.15
2230.77
730.38
978.69
880.82
816.17
586.53
420.06
525.00
553.80
430.16
514.30
671.14
821.87
1401.66
766.07
649.71
759.00
569.90
645.60
670.21
851.88
742.60
579.67
761.13
514.51
366.44
394.69
342.05
409.56
466.75
634.11
583.76
539.92
428.13
361.10
400.62
384.27
409.44
1956.06
542.15
554.20
490.72
536.22
447.77
545.43
525.42
599.42
541.02
674.99
718.85
836.81
1355.64
886.63
580.45
359.89
318.80
384.66
359.40
491.55
583.65
654.15
658.39
674.17
694.07
819.85
746.86
733.63
535.07
483.40
411.34
528.32
754.26
920.71
699.26
377.87
718.19
2019.41
468.40
817.95
890.29
1012.40
883.83
694.69
327.20
426.94
470.55
672.97
795.34
756.84
1048.87
945.44
760.77
712.32
522.89
566.43
413.21
379.61
360.19
436.75
356.94
337.24
1716.12
410.82
434.03
437.58
459.51
493.17
465.04
564.74
547.12
633.32
595.85
654.08
545.91
1511.14
693.74
829.54
731.20
780.24
794.33
718.47
538.19
443.24
460.51
640.24
607.32
628.43
709.63
698.95
433.30
393.12
446.19
574.29
526.64
544.32
422.43
347.52
510.83
356.96
1750.31
1022.65
943.95
824.20
660.35
728.90
686.23
879.44
879.82
968.90
828.22
707.40
425.10
599.48
313.83
370.04
358.50
530.72
530.88
437.06
448.57
483.97
582.16
757.03
539.36
435.93
464.80
368.54
455.15
720.39
786.04
844.74
746.99
773.74
574.43
721.25
573.38
633.64
1856.98
509.82
431.01
470.48
513.10
702.29
849.49
770.72
514.04
535.61
674.63
694.45
506.48
1441.73
479.60
474.64
447.58
447.82
431.82
464.61
545.25
588.65
519.09
588.88
685.66
706.71
724.69
643.73
709.68
787.93
816.54
685.58
383.90
324.01
320.66
370.42
351.46
416.42
1508.09
652.67
566.58
629.86
512.93
737.49
726.61
681.79
702.71
990.32
889.56
782.03
552.91
1522.19
478.47
524.89
414.58
496.41
378.35
351.47
320.49
364.82
349.88
449.03
544.02
647.60
673.40
639.02
628.21
907.95
1090.86
1389.67
1427.86
1479.73
1064.56
538.93
662.77
2302.01
657.94
383.81
342.68
495.77
615.81
716.32
567.54
531.44
495.14
410.88
330.08
448.89
1012.74
571.63
443.18
461.93
557.27
610.32
510.35
571.41
540.42
564.66
502.76
561.16
537.36
760.02
698.15
664.98
608.99
755.07
631.53
684.97
621.23
651.73
579.02
512.38
454.22
3517.98
604.79
629.74
499.56
610.28
569.55
601.43
702.43
698.51
618.62
743.36
664.79
556.87
1151.17
625.89
577.46
613.44
470.31
610.07
688.69
916.21
983.29
970.94
609.97
430.62
1563.43
400.46
354.55
436.73
494.24
639.49
593.05
651.52
575.63
470.23
398.56
436.91
486.37
1481.90
465.47
377.76
432.12
520.43
534.21
638.74
646.47
669.03
494.68
519.18
547.08
760.33
876.56
717.97
604.69
799.93
449.21
419.59
354.93
413.23
374.47
546.88
513.34
644.77
1338.44
770.63
886.76
764.03
493.28
329.32
568.62
621.51
603.28
824.52
642.59
714.05
615.34
1499.19
567.61
603.45
448.92
457.61
378.45
470.61
489.36
622.69
652.50
722.20
542.83
441.94
434.89
547.97
617.41
688.53
588.15
664.47
629.38
730.73
661.01
706.16
682.10
589.63
1222.01
578.11
537.19
595.62
576.32
580.56
594.32
619.83
636.91
785.45
687.74
739.48
667.04
1541.38
498.12
411.83
332.28
413.07
322.17
418.78
486.37
742.99
703.10
797.83
709.63
606.09
449.27
405.11
338.24
459.69
425.46
368.89
389.07
407.23
406.03
428.33
538.77
565.92
1345.99
605.44
610.56
622.37
689.94
640.27
520.38
557.34
579.83
634.26
735.46
904.63
921.41
1737.08
822.11
649.98
498.15
619.48
673.76
711.04
677.59
698.62
672.60
515.21
276.69
498.72
736.60
546.06
420.39
430.48
483.14
577.19
502.67
595.90
554.42
651.65
822.59
918.16
1675.82
828.25
816.87
733.86
600.63
514.21
361.93
465.05
438.21
809.29
969.63
1081.27
744.48
585.84
697.42
423.23
484.96
662.91
630.10
837.84
846.97
934.99
809.21
799.20
725.38
3605.00
529.29
421.01
341.23
364.28
421.95
416.19
420.34
637.38
607.64
646.85
592.64
516.04
1107.68
497.49
525.39
603.16
624.16
732.25
808.85
859.21
800.08
813.62
600.76
491.66
466.76
637.20
593.39
565.54
578.60
548.51
488.32
487.99
477.26
472.69
475.93
502.08
460.94
3772.13
400.08
456.04
479.93
427.81
466.60
467.77
463.48
674.70
654.65
749.84
689.21
622.24
1305.07
630.53
552.07
536.20
527.66
559.01
563.38
675.72
758.27
715.47
644.44
644.73
326.60
574.26
493.07
583.65
669.11
740.48
760.37
742.82
645.23
729.88
564.10
584.72
523.67
3441.69
553.37
542.14
553.44
604.15
625.80
659.01
589.71
727.93
637.13
655.12
535.71
523.65
1293.87
732.00
704.04
813.11
590.69
478.88
354.14
346.62
384.76
359.14
482.48
597.24
452.23
557.36
465.27
580.60
442.58
403.26
550.19
826.40
943.75
852.60
635.18
413.13
412.94
3380.63
939.91
924.98
584.03
461.30
444.90
479.35
480.41
493.04
467.13
576.32
623.69
722.55
1392.65
739.49
599.75
517.96
699.97
723.07
575.15
669.30
620.89
585.18
544.81
509.29
422.64
581.09
581.29
401.91
406.39
406.61
365.43
514.56
506.99
663.22
601.37
694.02
613.87
3471.29
688.48
715.99
681.93
702.23
665.84
728.03
574.78
441.35
384.11
517.93
569.36
638.55
1301.39
659.61
587.63
582.19
575.82
622.04
513.68
636.15
670.79
788.08
745.76
753.07
566.35
657.80
559.19
722.13
726.71
820.34
695.34
595.49
364.07
630.94
732.67
569.85
339.68
3424.65
464.18
521.41
496.98
595.67
650.91
654.26
547.65
533.40
529.55
621.13
611.67
662.56
1409.38
686.41
607.29
491.33
500.37
573.07
580.01
644.35
577.82
608.32
579.73
652.20
570.48
617.15
580.86
565.57
617.61
683.31
746.78
690.60
503.65
479.35
367.01
434.16
453.46
3403.92
569.81
585.50
642.26
692.62
565.08
621.67
612.31
612.43
441.75
423.59
439.57
450.80
1188.30
504.36
476.66
515.83
591.79
791.63
1081.73
1161.29
1012.66
669.51
390.57
431.60
1978.58
800.30
589.09
456.98
370.47
399.47
430.46
535.32
530.23
422.44
483.51
523.67
666.68
878.32
548.44
465.49
423.56
407.09
373.39
456.53
415.93
618.00
587.62
688.28
634.27
722.74
806.68
670.31
452.45
427.84
376.71
483.80
421.40
504.23
545.71
776.37
731.84
762.11
3427.30
626.28
614.82
818.43
804.83
880.64
697.29
637.35
387.71
416.60
398.74
371.81
419.16
1564.96
443.76
388.73
469.13
468.38
391.17
603.34
503.56
553.62
482.88
645.68
616.25
563.65
682.97
768.60
796.22
836.65
652.81
554.17
490.00
566.67
546.99
643.54
596.57
689.98
1291.36
718.94
665.02
652.92
512.61
540.79
393.52
522.25
487.13
551.45
503.19
508.64
465.30
1574.96
545.38
705.45
580.55
474.50
457.57
661.41
734.53
662.39
585.41
587.01
525.83
602.34
568.90
431.13
436.62
390.12
446.37
432.44
448.52
498.49
553.55
638.03
583.87
688.34
3440.30
782.46
747.73
716.29
658.66
742.21
713.14
520.83
329.53
457.08
653.80
563.49
547.68
1578.31
710.85
986.04
812.39
565.26
359.92
391.44
353.98
408.25
494.76
584.77
668.71
3488.69
715.93
671.91
668.58
574.90
516.26
462.24
564.47
545.23
613.72
645.70
415.15
397.88
1171.75
727.70
703.81
735.57
587.32
644.10
581.84
574.17
509.44
450.01
396.53
440.54
430.60
567.08
550.60
622.67
563.57
634.15
600.13
832.58
802.39
862.57
766.93
798.15
692.42
3403.83
442.15
419.18
457.96
510.15
550.74
616.89
539.34
437.58
395.95
467.88
427.96
512.04
1121.55
526.72
538.11
594.75
633.74
789.79
687.51
752.39
695.67
687.68
583.87
739.35
673.22
745.39
519.61
584.19
602.16
593.81
514.18
511.88
518.78
481.96
436.20
451.50
417.89
3504.87
528.21
460.23
402.00
441.07
455.87
568.16
576.12
644.76
663.21
689.37
720.46
864.26
1362.71
679.25
538.64
484.58
389.36
400.44
447.31
601.21
778.07
972.39
1000.63
1095.81
2584.02
873.76
650.03
467.70
402.62
467.43
376.51
400.93
406.99
405.11
397.24
508.95
402.70
622.22
504.11
588.01
523.78
613.49
700.74
774.13
719.83
402.31
534.61
456.16
390.98
3415.77
601.14
722.65
645.35
667.20
587.82
690.77
698.00
607.71
594.41
656.07
548.00
556.46
1328.47
684.74
634.70
630.90
464.39
462.15
380.87
571.74
656.02
683.81
637.10
682.90
573.53
688.07
554.20
588.74
620.51
626.23
490.94
562.84
526.57
607.95
579.61
584.01
542.73
3297.22
571.84
581.06
482.31
491.68
492.97
641.82
605.30
547.03
465.87
473.90
585.67
740.94
1342.38
660.24
430.63
377.61
486.60
673.35
530.58
655.92
504.41
514.34
476.21
462.83
430.55
596.07
534.68
533.13
438.62
426.73
467.88
456.80
486.86
695.24
640.71
648.33
606.34
3320.54
763.73
781.97
658.21
628.31
577.17
531.88
470.12
607.49
601.70
681.51
579.45
695.01
1347.60
585.92
509.62
544.89
583.58
637.75
617.31
770.88
855.09
864.60
833.33
688.29
335.62
624.11
624.12
389.72
489.34
649.76
702.00
738.67
428.28
803.67
987.23
662.32
387.67
3151.15
732.28
790.82
922.94
1119.27
1127.29
1120.69
783.27
853.24
787.86
656.40
464.48
3491.47
422.56
494.26
518.70
421.84
354.03
468.90
470.45
511.88
575.55
727.55
639.25
807.74
1290.79
938.91
784.63
658.51
429.91
389.37
407.24
536.06
503.01
473.47
453.77
699.56
3093.11
751.59
530.14
467.17
572.31
467.10
490.30
452.45
439.12
562.04
474.41
486.32
417.67
1673.33
647.08
714.11
714.15
658.11
583.21
660.18
624.51
750.22
686.61
690.78
610.22
714.34
771.09
667.06
562.20
570.71
547.08
619.74
600.27
670.44
685.25
636.08
595.99
674.40
3138.65
732.53
673.31
633.17
468.45
451.75
407.72
429.23
434.64
479.05
553.39
574.87
565.19
1573.02
542.91
500.67
608.95
708.59
648.84
773.41
714.01
718.36
551.16
486.42
439.52
364.42
488.04
496.31
619.91
800.10
669.74
736.06
627.90
591.18
416.21
430.39
402.27
452.16
3240.47
617.40
565.23
634.17
632.70
591.56
538.72
558.65
554.76
574.94
574.75
593.87
514.36
1621.81
797.18
1073.71
1041.30
898.11
537.58
604.32
784.15
419.26
463.15
498.18
615.34
2030.63
748.73
740.66
591.26
548.19
462.85
439.36
446.14
413.19
462.55
447.34
472.22
561.90
893.74
782.90
801.32
818.52
697.15
624.33
445.13
406.89
391.20
404.86
437.53
526.10
528.16
784.36
775.00
777.91
677.29
584.26
491.70
580.01
490.44
522.22
486.84
525.97
648.61
3270.69
915.66
787.06
665.20
656.14
526.58
485.02
477.47
529.21
490.98
463.34
402.23
503.33
1157.26
700.27
543.78
434.77
430.95
460.72
578.13
710.98
509.61
531.73
463.16
431.49
446.84
623.03
803.04
971.65
840.85
809.30
695.29
622.54
505.93
497.92
451.15
622.02
527.42
2023.70
530.66
441.38
539.94
604.15
591.52
590.41
472.30
574.38
497.83
629.54
625.18
518.95
669.98
468.49
523.75
487.88
394.22
497.20
388.82
412.17
479.81
513.75
544.07
656.04
711.62
817.59
670.37
639.66
497.06
525.31
476.08
504.92
589.33
682.35
647.35
613.03
440.01
3191.36
508.60
642.83
676.19
934.87
839.95
727.43
601.61
471.24
453.88
460.58
439.65
472.28
943.03
568.14
598.02
621.80
560.67
688.30
645.79
634.91
559.74
615.31
584.84
664.11
538.27
893.46
692.29
615.71
495.32
475.04
411.85
516.13
389.66
563.52
526.91
576.75
557.54
535.87
681.13
768.60
695.83
712.94
698.74
533.29
408.87
458.35
399.77
499.38
493.86
630.70
3078.38
674.16
638.56
483.55
403.00
423.10
467.14
605.15
507.56
666.25
593.73
647.60
539.27
1635.90
609.92
701.71
612.57
670.97
732.01
821.97
664.75
592.12
380.64
496.90
538.47
655.38
670.72
576.27
488.91
664.50
724.05
582.62
406.83
405.56
462.59
435.40
459.92
481.02
3105.30
703.14
627.17
570.49
496.04
651.77
656.57
925.37
883.55
814.72
507.65
474.04
457.81
1630.02
498.12
603.77
635.48
613.26
472.02
386.15
363.58
404.18
446.73
531.02
479.97
408.57
508.64
693.65
884.77
969.36
729.55
588.16
392.10
497.16
596.47
762.30
845.36
844.14
2918.60
735.52
439.19
465.49
745.58
1004.45
894.04
404.87
447.60
657.47
524.41
725.22
622.30
1743.01
730.58
795.07
656.01
662.29
630.11
563.67
537.07
638.19
467.23
542.89
472.23
571.66
792.06
714.58
446.45
475.58
483.95
484.23
585.08
580.77
560.02
549.44
608.10
650.34
3099.02
925.50
756.95
729.54
644.57
627.59
497.50
653.45
575.89
614.78
499.93
578.12
482.60
1614.83
441.87
496.53
433.73
451.17
502.54
695.85
655.83
625.03
591.99
546.42
445.22
459.10
566.62
537.16
580.19
609.06
426.83
486.32
595.99
725.89
667.51
797.79
648.95
606.49
2911.54
573.96
675.21
692.19
645.09
621.44
582.46
635.06
618.53
749.47
666.64
636.49
574.70
1608.19
575.82
748.74
691.88
819.40
687.18
629.42
532.54
501.77
399.66
371.13
448.37
626.98
682.09
687.97
697.72
649.75
479.26
416.75
367.24
405.49
507.05
571.63
526.47
606.56
2987.95
634.62
592.09
656.81
585.81
652.62
505.03
655.18
573.98
611.02
479.76
389.50
419.20
1653.91
391.85
624.25
597.80
650.76
560.95
575.76
566.78
591.22
549.33
564.81
581.90
633.67
661.48
737.21
944.95
1191.07
886.87
584.37
998.80
1006.89
397.18
638.97
665.71
747.52
1048.99
1185.49
1314.83
1379.75
1020.41
720.29
417.72
536.99
740.07
788.98
545.84
476.31
563.22
655.21
621.83
558.73
553.76
508.84
526.66
522.76
464.83
483.15
717.58
417.80
2873.59
739.14
528.11
531.96
653.74
613.08
572.78
459.70
443.71
542.59
482.40
518.47
563.88
1722.58
604.98
642.52
647.18
672.80
645.35
604.37
477.65
580.65
637.59
782.07
795.99
712.79
582.62
517.09
508.75
524.38
463.36
501.17
380.82
474.08
664.21
849.98
814.04
972.04
2988.77
730.17
511.12
468.12
457.45
488.10
483.69
551.87
464.43
519.95
470.20
524.79
545.73
1728.45
493.19
625.99
718.90
820.65
673.95
616.06
446.75
510.20
522.52
661.23
593.31
712.83
888.53
843.29
669.33
602.05
504.33
434.16
407.49
413.50
447.58
503.03
444.84
506.89
2905.74
630.22
579.58
618.30
539.71
623.67
538.50
595.23
514.86
614.39
536.37
656.93
654.21
1649.94
642.50
632.08
632.76
535.86
490.93
514.36
487.75
546.27
512.65
603.99
438.69
527.58
634.53
661.47
555.51
586.10
624.56
564.61
735.58
781.89
741.81
715.44
547.06
580.74
2851.90
550.92
505.88
416.32
604.25
592.27
622.33
598.88
599.58
665.83
703.36
579.93
526.31
1660.65
810.82
780.06
585.66
605.62
474.04
471.48
479.65
461.52
424.60
662.62
881.94
999.48
798.79
664.59
1590.04
1486.19
940.62
480.87
509.80
552.47
693.06
1002.49
1027.07
1005.80
993.11
881.85
812.02
787.88
620.85
565.68
543.52
716.91
614.03
560.60
499.98
560.02
1096.70
657.90
585.77
579.76
436.96
453.29
429.16
626.82
699.02
707.18
633.72
731.52
596.58
578.50
432.10
433.25
384.46
459.87
495.67
429.45
429.81
562.52
479.28
563.81
460.07
2919.46
598.06
678.40
672.17
782.39
821.50
1038.15
949.45
987.81
653.11
523.00
467.17
741.23
542.31
435.72
449.66
468.24
453.64
402.28
438.43
604.72
740.46
789.67
698.76
623.79
2919.92
561.44
546.22
608.26
571.91
608.92
593.54
636.14
723.84
751.15
612.79
634.75
431.24
1684.86
413.06
459.94
517.02
580.25
585.52
662.04
568.83
599.11
556.43
656.55
646.56
707.40
742.98
665.26
709.80
991.29
959.17
843.70
602.08
525.86
882.23
676.15
475.00
606.78
2008.87
630.82
456.20
532.67
446.85
493.91
474.53
694.75
501.21
557.63
512.72
597.67
588.10
891.00
668.71
743.43
700.55
655.45
628.40
684.50
538.61
495.60
537.02
673.40
729.42
931.15
1090.25
944.31
494.07
603.37
930.62
727.56
382.21
624.61
682.60
948.10
936.89
821.45
2102.13
733.89
667.83
600.93
470.01
500.56
487.74
481.07
444.60
484.91
443.84
530.31
560.73
852.43
609.60
646.69
654.12
669.41
671.06
668.39
691.37
563.34
649.92
612.85
502.00
558.18
680.05
629.18
512.76
519.71
559.19
523.12
505.24
664.26
679.03
840.17
742.29
796.45
2807.34
635.64
526.78
671.35
684.17
738.36
614.72
576.21
497.52
467.33
432.30
451.91
387.92
1701.36
502.81
484.95
545.94
616.45
606.33
664.24
627.18
676.86
536.02
518.03
481.53
530.05
586.59
551.20
496.14
568.65
487.17
570.85
593.95
577.22
515.01
574.94
549.16
447.18
2767.44
631.75
680.72
756.19
762.66
812.42
632.93
569.50
464.71
425.46
449.01
512.48
494.54
1769.50
676.80
700.46
674.78
736.92
620.87
672.13
598.71
652.30
653.30
540.40
664.87
740.41
975.40
1033.07
804.19
699.88
620.65
622.68
549.33
429.43
420.03
484.66
530.84
558.36
973.75
431.27
441.77
501.79
387.87
460.21
440.09
464.27
496.64
626.58
576.90
628.72
571.62
774.00
642.48
562.45
584.69
569.34
425.91
474.93
576.74
827.07
842.16
751.61
729.18
2862.31
639.92
747.69
757.99
738.67
701.69
638.98
586.91
587.06
433.89
476.64
413.41
496.63
1196.96
708.81
647.99
780.99
631.99
642.15
486.24
483.69
447.47
490.39
465.71
502.92
501.74
678.76
544.08
554.55
576.87
629.88
627.97
696.12
573.68
595.41
573.88
559.00
573.97
2701.24
811.42
908.20
863.51
766.14
524.85
550.19
521.22
427.27
545.03
646.03
611.10
910.99
1380.15
787.14
570.77
500.72
506.25
454.74
540.60
477.55
471.57
598.10
790.27
1237.76
1193.83
981.51
569.86
492.53
547.40
667.15
656.63
692.65
713.26
717.99
740.20
870.18
1000.80
1344.48
1021.55
612.52
441.55
1089.54
1333.98
1100.48
809.58
517.04
449.10
475.68
445.43
620.24
467.15
533.13
532.98
526.77
494.93
558.58
479.62
559.16
550.25
661.05
628.36
2754.79
701.39
659.29
671.41
674.54
665.13
706.28
665.97
657.81
673.27
698.37
734.25
851.23
1083.13
549.61
469.64
584.09
592.68
767.88
644.95
683.45
529.73
457.55
468.47
770.49
793.69
644.37
487.81
506.49
438.28
767.07
855.42
805.38
689.32
603.50
592.15
530.09
510.66
2714.56
462.88
451.95
425.44
584.74
497.18
567.54
575.00
552.21
435.23
553.66
526.96
547.68
1091.90
528.90
602.23
662.22
631.09
688.74
598.85
653.89
571.93
592.07
625.73
642.72
565.01
880.55
980.95
946.77
765.26
735.72
682.38
818.57
818.46
849.22
710.19
625.89
496.70
2652.88
399.74
464.23
440.93
433.45
455.08
435.69
425.60
473.39
402.22
434.05
466.70
556.85
1011.64
529.67
549.30
606.63
543.39
617.01
634.72
689.90
536.74
655.16
664.47
696.45
759.55
1088.72
923.31
1001.85
781.15
671.04
525.26
519.82
485.34
483.31
484.07
460.69
370.41
1771.26
529.02
628.44
657.71
766.70
735.54
799.11
596.08
476.65
474.15
596.17
557.17
632.59
740.59
710.39
617.59
582.33
595.62
916.61
883.83
766.78
603.29
659.31
605.86
651.58
628.81
707.34
384.43
447.34
459.22
550.23
562.50
662.61
644.00
699.71
664.77
495.76
528.28
2532.85
608.69
559.08
571.55
585.43
425.67
578.96
784.77
982.06
775.21
646.21
408.21
500.57
736.92
531.34
559.96
520.23
490.58
622.52
643.53
729.82
651.17
642.97
522.66
591.69
556.92
838.24
697.32
838.69
658.93
605.06
428.05
506.74
427.75
612.79
582.08
591.78
558.30
2578.98
676.67
624.62
369.36
732.04
569.54
521.57
693.33
706.06
682.68
744.71
610.69
642.48
1347.22
818.87
761.09
758.52
740.49
737.41
698.40
717.20
646.13
506.34
508.91
564.26
552.83
539.63
438.84
642.08
554.35
551.91
695.38
724.80
765.84
623.41
495.04
526.90
537.93
2654.60
480.62
563.45
562.24
685.96
759.54
748.97
768.70
851.00
675.06
663.72
671.92
592.77
1063.53
457.38
488.48
488.76
540.91
613.58
471.73
507.79
535.88
560.93
580.44
612.27
546.86
759.54
607.06
709.18
510.52
532.67
529.31
544.56
604.19
687.80
606.06
544.00
592.96
2427.44
651.83
708.89
614.55
572.90
547.70
573.83
550.89
674.16
712.19
1022.25
945.86
1002.01
954.26
674.25
661.95
524.48
756.75
679.74
430.24
656.47
707.00
745.34
616.61
535.24
2521.73
626.01
605.23
662.58
575.49
675.15
788.75
783.55
776.69
701.20
541.00
482.18
460.71
1738.27
429.18
434.75
435.21
516.75
433.28
436.75
464.65
673.69
878.50
1085.72
657.29
599.77
370.54
429.39
470.98
596.36
722.66
783.73
660.25
582.61
617.10
523.23
519.80
571.92
2213.23
665.76
672.03
702.12
662.02
616.71
522.24
494.81
460.68
472.26
465.30
440.57
470.82
707.45
597.10
772.87
728.74
696.97
451.22
565.45
664.55
798.90
821.51
755.05
755.41
784.26
850.58
710.63
440.35
447.25
518.26
834.02
755.49
757.27
601.83
511.50
501.63
457.03
2394.93
742.82
709.42
666.35
529.70
534.19
434.18
534.02
574.79
593.82
606.38
677.51
560.24
1828.13
586.42
617.79
607.35
550.46
515.13
654.45
667.52
771.59
689.08
655.80
473.88
534.21
508.29
533.62
509.88
549.23
601.04
603.79
533.28
647.95
579.09
651.71
622.03
679.28
2408.72
725.02
579.67
679.39
662.24
784.30
732.05
887.97
783.28
858.07
643.55
636.70
537.41
1688.74
629.03
658.75
401.65
527.06
519.66
538.69
521.64
545.08
518.11
529.96
479.60
515.50
772.88
926.49
829.81
822.49
646.47
715.85
730.06
821.76
707.89
738.89
634.79
566.47
2339.93
555.81
439.71
518.48
458.36
588.11
546.99
583.01
452.17
525.98
544.90
624.98
592.22
1716.92
557.55
709.46
690.03
686.77
652.79
706.91
457.82
530.20
615.46
788.50
624.71
551.09
581.85
575.92
598.88
631.75
705.05
759.43
638.89
641.66
542.57
463.77
476.41
504.41
2419.19
362.62
445.90
414.08
483.77
574.04
549.19
487.30
493.93
583.86
527.32
533.03
536.28
1770.27
615.66
715.86
630.99
624.56
497.53
566.06
614.25
909.15
886.31
846.90
698.69
602.98
546.48
642.71
722.07
795.08
532.43
418.88
344.32
556.17
685.54
813.46
753.83
865.19
2477.38
775.56
621.37
662.19
745.73
755.46
747.47
789.54
733.50
550.35
927.68
1589.59
1348.70
807.93
595.92
772.07
737.66
819.08
817.71
693.29
530.33
553.84
439.04
656.93
638.77
2367.36
644.64
637.18
490.76
583.80
463.56
511.47
370.13
761.97
586.86
647.20
649.08
768.15
1316.65
843.40
827.95
907.29
746.17
561.49
433.65
423.98
390.18
490.16
451.34
572.44
640.03
903.43
663.91
737.37
460.39
456.79
488.74
667.93
507.18
565.29
533.29
565.57
551.72
2465.27
705.64
849.29
720.23
661.74
578.87
587.83
512.11
691.14
564.23
678.59
532.44
517.32
1077.80
579.05
596.34
602.95
456.64
526.35
460.84
511.82
617.42
566.71
450.56
428.33
378.90
527.76
441.42
544.18
576.50
734.96
856.68
773.50
503.27
422.97
488.37
828.43
815.19
2640.68
852.05
705.92
619.75
613.77
680.39
652.53
463.20
447.50
369.60
393.26
445.01
372.30
1000.06
401.77
375.44
468.05
488.02
451.67
475.98
607.59
552.57
566.50
683.31
843.24
859.53
1171.80
828.64
638.62
362.15
504.56
372.02
666.85
795.63
878.56
767.13
692.41
483.76
2393.94
806.91
834.80
694.20
667.09
608.63
576.32
599.08
591.66
549.13
635.49
694.90
727.54
1412.47
780.90
700.18
541.93
439.66
489.52
419.07
452.87
462.24
446.95
579.63
772.74
795.51
931.98
823.25
801.52
631.09
644.75
549.55
537.74
388.38
420.11
442.68
529.24
490.69
1792.56
459.05
562.01
599.76
711.26
670.64
746.32
927.24
1017.50
764.31
564.28
383.13
407.23
447.75
512.50
635.46
741.29
648.76
709.75
600.35
663.66
600.29
617.14
472.37
572.66
2194.77
631.30
643.82
660.75
529.99
633.77
554.34
518.31
431.92
453.88
559.75
775.70
731.40
1833.56
536.65
519.88
418.91
458.06
348.37
610.69
593.78
596.86
590.61
732.87
725.54
818.09
1004.84
1079.15
1041.65
1051.98
850.78
558.28
357.66
579.30
490.44
361.30
411.15
482.26
459.03
441.19
395.78
371.69
570.31
584.70
618.68
806.53
753.71
813.81
843.10
702.00
2252.89
538.57
450.15
488.89
531.98
714.64
821.66
915.60
883.04
702.74
414.91
522.87
371.34
1761.26
501.01
517.09
473.64
562.42
596.25
748.83
790.87
948.84
801.78
558.04
488.26
2318.32
339.81
587.11
534.55
514.20
536.78
831.18
859.74
725.16
481.67
422.16
424.01
597.23
1184.36
681.67
709.04
836.18
710.92
746.20
607.02
673.44
527.90
605.36
473.02
560.18
615.44
864.51
820.66
761.44
640.61
635.28
504.68
422.80
443.31
470.93
376.57
438.02
513.67
2303.09
765.06
799.99
634.66
513.86
632.77
753.38
758.07
778.60
679.92
675.13
568.52
655.54
1236.55
736.36
614.59
766.23
667.17
548.36
357.93
396.98
360.26
466.21
401.75
497.06
545.54
748.98
655.04
664.51
581.74
624.87
490.35
475.68
437.56
454.14
413.51
473.71
535.64
2263.07
849.65
888.78
507.95
414.78
395.59
514.50
638.52
792.97
869.22
1023.12
930.18
756.10
813.73
493.30
381.20
383.62
349.19
338.95
405.60
562.82
550.01
581.79
460.95
475.29
464.36
607.03
442.76
564.35
554.14
620.90
556.78
572.32
547.94
724.31
790.71
809.75
648.39
2279.74
463.63
388.89
435.76
630.89
682.84
788.05
594.24
497.12
461.96
490.94
433.51
465.56
1066.00
485.06
541.13
666.93
687.00
681.77
607.87
630.46
632.48
778.35
710.81
745.02
775.23
997.48
760.58
654.18
370.69
439.49
298.68
461.95
357.51
407.63
478.27
523.65
512.97
1842.57
635.46
515.74
390.67
427.66
459.73
700.17
794.94
855.21
709.38
741.65
586.57
584.44
716.07
639.74
640.12
605.40
523.66
567.26
460.92
458.10
444.04
442.34
509.58
633.55
530.99
812.17
690.25
701.53
613.33
615.21
483.44
535.78
418.45
506.58
427.14
580.43
586.34
2067.08
734.74
759.38
709.74
545.82
353.39
396.25
465.27
581.01
584.62
712.11
676.28
796.34
1349.98
857.19
578.48
458.30
381.56
432.34
539.67
752.11
678.56
812.45
632.06
608.46
545.80
641.63
496.75
534.44
476.93
460.81
429.61
437.69
485.30
539.77
421.94
522.86
519.49
2033.72
469.03
497.68
742.62
866.02
852.07
781.84
722.69
763.26
693.43
631.80
446.49
449.79
956.08
478.71
383.38
479.90
629.37
869.94
828.76
772.42
479.91
469.90
572.26
424.72
362.64
674.46
605.45
615.28
601.32
822.03
801.96
840.62
719.64
603.97
553.01
438.35
311.27
1844.66
707.67
810.00
811.97
888.23
799.85
786.09
640.49
811.18
690.89
661.23
632.39
491.11
1032.64
430.79
462.43
452.62
489.04
630.75
529.90
614.41
459.11
545.85
555.22
493.53
420.82
463.78
451.19
431.31
445.67
442.94
456.21
585.96
523.37
580.90
572.97
622.06
625.10
3546.42
717.24
645.62
696.99
803.54
749.28
745.09
564.92
621.16
474.43
329.47
343.68
486.27
1134.70
604.18
696.59
828.85
769.89
786.52
662.71
647.17
580.52
526.09
425.07
505.17
458.68
643.15
503.65
547.23
491.18
541.57
548.25
678.12
727.56
889.56
739.95
673.58
542.40
1934.84
526.29
729.26
707.98
851.45
791.78
745.91
558.58
545.94
539.98
526.00
381.47
401.02
1024.81
564.90
673.77
829.47
792.76
942.91
842.14
504.49
382.18
525.38
408.78
470.83
419.57
717.15
666.23
582.39
392.18
407.28
364.95
396.43
386.18
446.13
496.18
813.45
914.38
3554.83
1006.47
1131.95
1163.44
1053.89
606.66
375.27
337.93
390.30
472.17
420.06
442.85
1845.14
447.45
507.42
450.96
570.77
560.77
730.52
759.82
928.67
935.84
760.95
420.21
446.95
755.77
414.19
511.16
576.20
586.60
608.72
690.91
801.33
754.15
747.46
677.28
667.64
593.74
601.54
596.94
723.57
636.92
664.17
613.18
524.79
507.64
652.09
555.87
597.63
426.70
3678.82
524.42
494.74
412.59
552.05
571.83
790.44
708.25
697.92
573.68
489.07
463.79
527.70
1117.16
582.92
647.18
701.95
541.30
633.70
604.32
689.01
453.23
466.27
432.37
464.53
365.70
506.10
466.72
561.39
487.60
470.23
518.88
464.95
395.04
557.26
578.65
585.25
575.84
1937.56
744.86
765.95
626.17
674.06
474.79
338.72
385.73
554.43
504.18
739.51
756.96
1059.50
1404.30
755.12
575.99
558.57
481.91
476.05
412.29
529.97
484.55
558.19
523.47
574.74
1711.86
745.41
594.39
839.90
624.69
544.18
553.89
676.62
550.83
609.50
729.64
974.06
932.25
1166.74
611.28
401.63
626.72
463.47
422.98
416.07
363.30
397.85
363.33
575.80
587.42
3655.04
714.54
802.32
791.69
793.06
654.24
626.86
526.64
460.28
403.08
424.24
473.35
662.77
1370.98
903.17
1079.92
1127.69
862.13
464.66
684.11
423.62
459.27
776.85
940.01
1212.84
2058.40
964.32
636.36
544.19
493.51
506.68
367.73
361.71
289.21
329.84
387.44
417.62
1634.96
469.16
389.61
530.57
589.10
599.59
455.02
513.78
566.56
700.37
631.03
618.65
477.37
1845.16
518.31
633.35
538.65
874.42
726.32
734.75
510.86
607.50
634.86
594.54
558.14
576.70
580.66
462.44
408.10
725.79
622.46
685.95
473.83
411.96
584.26
699.09
593.22
584.50
1377.81
608.69
446.06
522.07
499.03
572.95
508.16
530.91
540.74
622.42
543.97
603.55
605.00
2001.91
759.87
713.70
526.60
486.99
448.21
552.77
458.03
547.23
653.73
781.24
640.27
388.41
470.27
479.52
484.52
726.54
599.92
620.87
581.88
628.32
599.42
685.46
483.08
543.56
1477.10
648.85
624.86
645.09
502.61
639.44
618.99
693.99
711.01
812.26
686.13
734.31
607.14
1004.68
477.23
459.18
441.55
475.25
517.46
693.14
594.75
676.63
589.94
696.16
703.57
857.53
923.29
870.70
585.86
443.09
483.85
546.95
380.45
382.19
488.11
417.36
359.10
653.17
1510.42
915.32
768.17
775.67
592.24
663.93
590.64
585.00
547.44
611.46
540.00
578.63
470.63
1739.29
370.55
491.70
561.90
501.70
606.33
660.30
628.43
500.64
325.42
488.50
328.58
468.07
667.40
641.06
643.23
714.69
693.63
737.70
518.27
577.16
561.17
787.01
717.44
783.06
1297.20
468.32
389.20
474.26
543.23
667.88
727.22
845.58
863.06
976.30
930.37
954.25
804.95
678.62
492.21
546.05
359.38
449.05
550.16
643.10
646.45
563.86
380.43
516.49
662.01
421.38
503.57
452.15
540.60
624.30
741.23
870.27
767.83
644.03
394.59
437.41
409.25
597.19
1334.20
928.58
1017.72
876.96
636.63
477.54
324.24
370.15
474.51
494.54
534.98
640.98
616.79
986.41
755.48
775.46
616.02
599.09
439.65
572.18
584.43
710.21
553.02
681.47
486.72
434.55
605.70
904.10
899.99
931.05
677.94
598.85
482.38
582.46
582.78
664.80
665.12
763.02
1357.84
605.56
627.20
747.24
709.78
597.98
432.78
574.27
566.92
431.70
475.01
426.38
569.64
1225.94
886.15
914.41
601.29
460.70
344.47
450.53
451.19
524.69
497.20
494.07
563.72
655.84
674.61
677.58
579.14
609.85
493.47
537.79
584.05
624.32
589.75
558.21
543.77
556.09
1299.40
612.74
676.76
655.54
625.56
722.55
612.62
635.02
448.45
493.18
422.16
534.55
473.13
1063.72
618.95
560.33
615.02
760.51
519.82
432.01
367.80
472.56
639.08
747.04
644.32
602.55
701.07
684.14
644.02
770.62
648.25
683.18
540.11
610.91
551.33
549.22
457.87
568.56
1340.48
642.79
605.65
610.68
532.55
510.98
563.95
597.78
545.42
576.18
452.88
483.55
520.66
1128.73
653.54
725.75
641.13
663.34
518.73
673.53
605.69
695.02
693.13
734.71
505.99
650.89
695.71
412.46
411.22
595.63
537.35
578.16
618.99
669.61
596.78
604.24
716.18
555.24
1268.22
483.65
469.73
504.85
678.90
887.69
1146.84
1211.30
761.93
531.47
368.97
464.79
431.42
521.60
359.50
415.89
395.57
613.44
797.90
875.30
834.29
640.41
431.36
467.74
471.95
3591.26
683.57
789.73
844.03
769.95
645.39
541.47
550.42
640.97
390.55
507.27
531.74
600.70
1384.80
426.32
466.77
651.23
744.00
839.68
792.71
773.43
716.38
703.65
609.98
698.99
618.67
698.36
530.74
549.12
558.09
685.85
685.10
811.64
652.68
708.12
694.53
761.56
598.33
3380.02
480.18
366.91
408.92
621.20
615.66
591.37
375.08
489.84
604.92
720.22
700.84
761.89
1358.78
737.19
590.61
485.63
402.08
413.96
381.42
548.47
470.03
421.31
402.47
567.57
466.29
530.55
479.10
658.87
681.66
723.21
539.50
579.74
451.47
525.34
483.42
462.97
452.32
3541.39
459.43
607.11
546.97
549.38
566.81
602.50
602.05
614.28
616.17
743.93
731.93
789.64
1403.20
916.31
735.49
599.39
407.32
418.29
520.98
517.51
517.26
558.83
479.42
523.80
494.67
696.58
610.47
717.62
744.44
1003.26
673.13
454.66
437.19
764.35
701.54
421.29
420.12
3402.83
671.68
780.19
764.44
794.84
724.90
645.93
607.75
610.23
598.14
574.56
524.88
632.46
1226.35
609.82
594.99
777.60
650.42
665.52
540.35
567.27
481.27
476.04
528.09
658.62
657.15
793.80
624.17
539.43
378.47
385.53
499.87
772.72
644.64
705.65
622.16
555.04
499.26
3591.15
531.35
539.92
419.24
440.79
441.00
453.40
485.00
514.79
490.07
498.01
436.77
462.19
1233.20
683.00
728.25
750.95
679.85
807.93
673.97
583.76
471.23
441.92
383.63
452.53
490.23
651.42
600.42
659.79
580.46
680.50
646.80
663.67
740.75
725.44
751.53
754.25
775.94
3286.89
641.63
677.97
674.47
646.65
506.52
568.83
564.13
546.86
335.05
431.15
374.56
383.66
1110.64
516.63
522.28
640.88
442.58
580.42
508.08
405.18
406.81
428.22
475.82
761.30
862.12
1219.94
890.47
765.79
465.72
385.74
374.35
677.74
786.58
819.60
672.85
649.11
508.00
1891.32
498.70
532.81
442.47
583.88
553.72
618.13
467.14
458.90
436.67
596.44
515.84
602.95
733.41
886.62
884.43
968.74
598.34
454.53
463.17
441.13
498.24
475.58
498.87
567.55
3330.30
539.08
484.94
689.50
693.39
853.90
760.00
672.73
524.90
591.00
564.04
679.15
582.50
1105.47
633.01
675.29
521.03
607.59
503.47
464.24
412.08
437.55
490.88
493.21
540.27
607.18
713.15
627.86
446.73
597.66
564.68
719.50
541.90
670.13
677.36
773.51
998.96
1328.57
2511.30
855.42
356.75
426.85
525.09
412.37
423.22
444.41
294.35
497.91
404.24
656.06
569.71
705.15
531.14
456.76
444.34
468.97
380.20
415.76
462.14
540.00
558.03
613.16
463.89
3563.11
699.55
670.39
682.47
707.24
632.47
606.61
551.08
578.98
520.77
645.07
668.16
743.65
1113.42
614.15
507.40
494.92
465.36
563.14
546.56
607.83
627.22
657.87
620.20
608.78
526.28
734.96
558.67
650.83
584.55
688.20
632.30
861.96
623.63
579.38
391.57
407.72
397.75
3279.69
555.23
647.30
546.57
644.69
545.30
599.11
539.40
643.03
525.58
649.29
533.83
508.51
1257.06
599.23
477.14
557.62
508.00
522.92
441.41
485.70
406.64
533.99
483.32
522.11
496.11
786.29
625.85
706.23
688.02
839.57
775.39
919.23
566.90
430.50
455.88
406.74
412.69
3305.36
749.72
712.34
616.26
683.37
607.26
682.69
568.96
677.71
547.36
550.08
482.00
601.00
1165.25
659.01
619.42
549.76
488.25
510.97
465.50
538.59
379.25
462.51
517.35
659.41
630.18
745.82
644.60
713.81
626.96
857.16
831.98
1154.34
1088.38
820.25
435.47
1310.98
1626.72
1353.76
449.44
597.09
793.88
1132.61
1123.75
1022.54
738.22
531.61
487.88
500.73
366.51
607.06
537.45
485.65
390.44
426.32
439.27
558.77
603.06
623.10
483.71
464.35
531.27
3463.51
531.44
585.47
533.21
664.92
615.64
727.19
779.81
880.83
830.91
762.50
454.46
569.16
1301.36
436.18
699.76
822.77
801.23
708.29
620.74
622.12
644.23
621.54
542.67
463.27
473.71
439.16
420.83
554.46
549.38
621.16
593.71
684.01
647.12
744.50
604.33
641.26
620.13
3246.68
768.05
777.85
837.39
877.73
750.39
603.00
400.05
463.09
413.39
411.58
388.21
430.26
957.07
470.51
404.34
487.60
442.57
566.55
565.42
689.55
595.02
474.91
593.27
670.90
705.97
922.38
660.94
671.26
645.17
640.12
529.44
444.91
458.37
508.64
579.89
858.72
824.01
781.56
662.61
407.34
414.96
482.33
583.85
705.87
610.42
648.60
663.88
895.61
657.38
519.09
3355.25
504.29
506.63
612.56
490.43
516.17
482.78
736.15
573.42
614.59
518.27
371.63
490.06
1007.90
450.44
585.73
601.47
710.32
698.12
928.31
843.80
611.14
526.61
548.83
563.58
550.65
607.68
508.13
441.81
489.09
466.68
523.16
502.27
691.01
785.82
836.41
775.58
721.86
496.24
455.47
452.93
679.43
876.20
1027.91
900.31
984.56
937.97
791.49
415.85
492.01
806.77
1148.87
463.18
989.02
1075.39
1325.46
912.56
644.66
566.38
476.31
845.34
1245.90
892.86
2001.43
489.38
554.26
603.00
596.64
598.64
613.53
513.58
540.38
364.37
532.94
572.38
718.68
733.33
704.53
860.96
752.24
550.36
490.76
402.57
437.52
411.46
467.27
590.79
751.06
3164.85
1088.29
1042.20
856.70
694.51
531.85
444.39
486.71
409.31
434.62
532.60
794.93
812.59
854.45
487.81
442.77
374.54
420.83
486.80
585.57
507.35
569.49
533.14
429.18
428.49
3223.35
595.58
715.13
626.51
642.90
563.48
694.39
795.32
810.31
867.83
928.38
592.91
630.83
970.69
490.84
422.65
511.42
588.91
617.91
531.28
544.30
581.10
538.48
491.56
551.74
473.41
721.31
534.09
543.39
568.63
677.57
756.88
774.83
707.35
674.83
494.87
543.58
461.40
562.18
580.92
594.47
573.82
656.98
444.79
560.56
456.07
505.09
525.43
606.82
554.30
620.88
3160.92
609.78
550.41
544.39
562.59
682.80
627.88
717.64
611.71
623.78
490.04
411.50
425.84
990.74
455.23
528.39
535.42
586.55
550.40
618.04
569.30
673.13
653.29
632.33
648.44
716.03
920.23
797.99
682.89
566.72
503.04
584.12
637.25
712.14
582.30
634.96
684.16
838.37
576.12
818.43
506.09
528.66
533.54
419.03
438.61
596.49
623.54
707.20
614.70
560.96
422.71
3237.27
463.66
496.60
637.32
890.56
799.30
800.04
446.80
444.95
478.44
405.94
541.74
752.74
1338.95
850.93
675.54
760.87
495.82
554.03
456.88
484.02
435.38
555.72
460.64
606.28
416.95
639.62
603.00
604.76
548.88
606.02
646.03
735.38
727.20
653.80
558.97
554.60
641.23
3083.09
900.16
733.62
418.99
657.51
899.80
532.44
397.98
479.21
639.37
939.53
883.65
753.77
1161.77
730.29
558.65
455.67
463.72
710.77
816.03
757.40
463.50
476.11
452.57
411.33
437.48
662.15
630.55
701.71
644.44
745.65
705.59
770.57
665.87
556.55
435.46
502.63
556.18
3126.58
547.76
504.54
488.18
497.91
408.37
486.40
378.52
531.75
562.78
699.96
716.09
681.66
1294.99
707.29
700.23
593.22
487.44
600.98
566.57
562.91
467.81
591.35
553.34
590.72
629.77
827.54
602.04
585.24
497.43
547.18
434.72
495.44
532.48
634.25
640.58
586.53
507.71
3137.13
571.85
577.63
532.67
525.49
573.40
550.48
419.79
561.54
658.00
691.14
688.51
767.84
1346.54
871.00
785.55
730.51
644.04
546.41
460.59
448.37
457.84
513.26
584.83
746.11
650.05
825.79
605.26
646.62
520.66
631.46
488.75
579.92
469.65
589.76
430.86
479.21
354.67
3017.52
611.49
700.04
603.07
607.33
737.62
857.71
688.96
423.78
601.65
538.34
400.04
547.06
1053.74
644.92
677.45
1008.31
1003.32
1113.20
540.94
569.23
784.53
455.06
474.54
538.51
1093.46
701.57
653.89
712.66
637.93
662.54
648.47
645.57
581.47
646.89
561.48
642.70
501.71
655.25
661.49
646.13
609.55
565.57
519.00
510.29
464.49
526.94
665.45
897.21
927.12
3167.72
662.94
509.18
480.45
419.47
470.54
627.24
452.43
448.96
398.35
717.55
845.40
806.91
1020.21
703.95
484.49
454.01
643.07
407.89
457.97
483.18
486.84
610.52
595.74
609.67
3028.68
591.52
524.13
579.39
491.79
621.51
507.23
601.72
556.78
721.22
678.55
741.47
588.77
1209.57
613.24
718.37
622.18
663.63
557.14
515.54
536.98
646.79
634.79
658.10
593.35
569.46
556.62
583.82
608.51
707.74
487.90
440.78
467.78
528.67
610.39
629.08
542.46
595.94
2881.24
786.61
731.71
788.03
611.63
590.31
453.68
483.25
434.08
534.08
533.98
585.80
551.31
1292.07
715.56
601.28
663.46
675.54
742.35
645.11
412.20
455.46
557.36
682.41
643.10
401.11
467.92
450.73
502.85
638.68
701.09
712.23
519.74
548.06
641.28
736.70
617.19
746.54
2943.12
656.93
540.00
546.79
581.16
605.49
629.56
603.70
408.34
543.01
519.70
698.03
530.28
1077.84
477.44
384.23
541.19
1023.06
1093.30
993.56
588.83
568.52
446.26
462.94
417.22
1006.17
576.56
746.75
710.56
756.40
632.74
550.88
506.00
507.26
503.96
561.69
546.24
591.74
486.92
692.77
544.46
529.63
588.71
899.97
830.62
796.57
684.84
691.15
647.99
692.96
2871.69
683.68
652.06
749.27
616.79
613.09
578.65
509.11
546.21
457.39
480.46
661.23
818.75
1287.73
811.33
532.86
493.43
437.50
396.34
611.96
526.54
626.82
608.09
619.13
689.27
760.86
709.07
569.46
560.61
555.91
490.08
528.11
589.32
567.08
457.46
495.34
501.53
620.01
2765.74
776.82
789.77
874.10
753.60
641.65
523.52
569.81
625.95
539.50
496.38
469.29
452.91
965.71
405.84
528.49
469.40
591.01
563.49
735.45
785.49
923.62
655.25
467.85
565.19
507.88
488.86
535.59
477.20
691.68
654.92
722.31
669.18
867.96
746.86
812.44
532.71
623.26
2856.72
580.90
600.45
698.81
665.54
718.17
624.36
578.39
540.59
547.45
522.75
617.80
538.51
1082.80
539.45
456.41
431.30
577.21
610.19
690.26
536.60
643.62
513.40
645.55
650.58
715.15
736.45
576.57
466.70
660.84
795.14
739.78
458.12
850.24
475.65
555.08
650.71
702.85
2800.50
784.57
777.21
907.52
986.75
1342.40
1223.95
1211.82
868.06
496.00
1090.42
1150.78
1358.85
442.71
447.76
592.14
630.67
650.36
558.68
664.02
729.66
737.92
562.63
570.09
2803.38
690.84
634.50
656.49
612.80
763.30
650.39
624.78
525.04
548.58
564.12
688.45
684.29
1273.71
577.99
661.05
538.47
705.04
553.70
568.08
659.27
788.88
808.82
777.45
506.23
459.19
494.61
424.13
458.90
500.90
514.84
643.37
423.94
484.23
531.52
611.58
546.57
583.21
2758.14
729.98
487.91
578.69
473.28
588.76
516.37
676.08
686.77
722.13
732.05
884.56
746.94
1375.47
501.52
443.66
415.60
478.55
639.76
745.04
785.96
898.02
831.01
896.18
612.50
626.44
719.35
845.23
758.43
631.24
489.70
458.88
437.25
497.38
441.23
458.90
443.68
516.17
2742.39
688.83
609.08
690.42
567.33
628.93
624.69
673.51
589.59
670.39
650.77
688.20
682.47
1203.07
671.39
643.48
494.58
561.46
454.88
483.82
414.74
520.38
513.72
666.15
706.06
802.60
932.82
712.66
463.86
476.83
540.91
817.98
918.48
872.07
558.44
459.62
431.66
530.10
2717.73
792.96
705.48
673.82
587.51
531.35
465.39
507.92
439.27
578.91
527.75
646.33
538.05
1119.87
690.98
915.17
699.95
650.40
594.19
623.69
402.14
502.24
520.82
520.47
481.28
520.03
510.36
654.13
564.89
722.51
616.59
694.35
640.29
723.05
666.17
662.94
560.44
724.54
2726.42
683.26
499.18
514.32
540.25
553.00
408.92
440.95
515.31
556.65
438.52
522.51
570.13
1139.96
632.69
646.50
739.83
850.21
744.01
837.70
650.17
709.24
521.30
574.82
560.93
616.25
803.82
905.67
707.67
674.41
479.55
452.41
416.09
552.52
499.88
591.33
551.73
698.39
2615.92
749.02
689.49
608.76
471.38
573.41
533.75
730.54
738.55
760.20
617.24
465.28
431.30
998.00
448.84
571.65
580.95
678.80
687.78
772.00
674.70
757.32
748.22
826.94
744.20
838.41
876.80
795.24
747.95
839.84
857.60
898.32
722.22
509.59
425.67
499.29
488.09
605.93
2645.13
559.21
480.00
510.54
429.69
542.60
538.83
573.11
485.25
457.65
477.60
398.47
434.01
1075.33
490.85
594.04
711.09
752.30
621.82
643.89
480.53
588.42
558.41
641.28
564.87
588.91
615.36
565.60
549.06
572.56
582.36
596.11
536.76
603.45
558.43
589.06
646.31
879.23
2682.21
1146.11
920.66
754.86
410.87
426.19
398.40
544.05
491.20
496.13
400.37
470.67
565.38
970.60
867.97
1022.65
909.49
932.28
828.67
945.13
815.59
815.24
533.53
582.80
504.30
2140.25
514.49
491.56
431.66
682.31
827.72
791.37
659.69
433.43
492.78
648.24
630.03
669.97
936.46
882.14
742.38
713.14
585.61
571.92
519.32
655.25
597.35
669.24
570.04
688.44
2646.68
553.65
540.08
587.79
664.78
758.67
700.96
779.32
659.96
631.40
473.26
545.79
553.03
1182.24
577.68
695.19
621.60
658.65
608.22
830.82
765.46
890.02
804.33
642.43
545.10
533.79
529.70
680.27
664.93
551.72
433.21
525.56
531.21
573.62
573.57
978.11
922.95
964.19
2671.51
529.77
473.15
521.76
484.49
600.69
543.80
725.60
678.40
859.83
605.28
536.69
587.01
1296.34
1000.52
1159.29
1002.92
1001.16
801.84
643.04
515.71
499.30
459.19
545.66
529.05
718.41
415.86
413.53
457.23
605.46
521.36
462.31
426.99
567.14
523.08
659.73
463.00
608.43
663.15
579.66
510.31
608.03
674.19
819.83
717.12
751.68
681.81
735.36
676.35
753.81
2649.70
743.81
581.41
734.26
696.44
699.66
668.95
673.45
527.99
618.30
726.57
883.32
709.83
1172.91
510.03
480.91
439.58
463.24
495.84
574.15
561.62
776.26
707.57
702.71
686.00
443.68
557.92
690.09
622.05
776.62
812.02
727.60
634.15
544.65
473.65
534.00
479.77
391.68
2598.01
453.87
412.73
515.18
500.20
519.99
476.86
582.73
537.23
568.72
527.12
638.83
575.66
1103.83
602.16
629.87
658.06
648.01
588.71
692.13
601.53
749.87
678.75
726.48
668.67
738.47
796.01
854.70
723.21
608.49
467.46
588.89
550.87
659.58
737.84
685.78
574.19
647.37
2497.24
724.56
587.91
643.86
574.05
632.53
623.10
683.18
653.16
759.58
523.26
591.10
433.80
1001.35
441.86
556.70
565.88
736.83
681.03
710.02
544.93
460.63
447.32
555.45
629.05
734.79
743.52
720.98
583.10
591.28
455.37
613.95
847.15
1242.51
1130.21
875.11
399.50
939.53
1360.75
429.74
636.36
904.83
862.39
909.57
870.14
746.63
596.62
653.18
603.01
770.16
706.59
750.47
542.33
564.20
454.67
425.72
534.29
464.66
413.11
579.67
500.03
617.91
657.09
2576.27
570.61
650.85
533.47
646.90
644.48
691.37
663.80
714.38
696.46
847.00
821.92
792.19
1335.00
670.44
559.81
576.84
593.22
968.01
680.29
474.41
636.03
697.66
725.29
749.58
675.11
836.26
681.31
633.14
597.39
734.39
676.83
760.85
621.36
451.00
472.57
464.44
373.97
2596.54
537.32
631.75
638.58
664.30
503.59
592.28
606.79
699.72
665.26
694.08
690.74
698.97
1133.84
583.85
497.49
573.67
441.81
457.00
538.36
500.34
532.29
695.37
593.70
590.81
579.22
787.78
684.10
836.93
786.45
775.47
690.87
634.38
623.03
707.10
648.77
663.98
597.12
2612.99
699.38
706.64
576.91
527.87
499.69
449.33
424.36
412.50
452.22
462.71
442.33
530.45
1087.88
684.95
609.29
769.20
716.61
733.78
778.22
704.19
542.79
513.45
534.37
509.20
567.08
744.35
583.88
682.25
610.14
655.91
629.20
612.15
538.24
600.33
534.71
613.95
596.59
2458.10
627.75
905.11
749.17
813.07
493.38
498.01
393.05
549.43
578.35
777.05
771.00
901.71
1339.89
752.43
601.43
737.17
688.58
880.28
671.15
660.36
547.33
573.62
384.96
453.00
423.76
568.49
485.80
560.69
531.41
638.58
620.66
645.79
629.60
715.49
649.73
656.63
713.49
2556.25
502.97
485.99
549.52
758.52
906.49
945.72
751.38
656.12
436.79
505.92
545.35
677.26
842.28
649.85
584.91
769.60
695.64
739.08
557.39
567.23
424.79
446.31
456.92
432.77
385.29
700.81
688.82
501.35
417.61
580.77
621.19
650.39
705.51
707.17
673.90
689.27
604.46
2503.57
675.04
782.59
673.74
739.74
590.14
569.71
494.44
489.60
480.01
595.77
614.30
500.15
960.69
484.10
638.20
737.08
641.29
839.26
675.05
763.29
798.64
872.31
843.34
822.61
550.31
704.39
415.55
479.34
424.72
576.09
586.35
684.15
512.98
687.90
603.97
733.73
647.26
2477.26
545.30
625.21
535.54
605.17
521.98
631.63
583.60
701.62
646.76
742.21
648.56
662.23
1032.65
438.85
442.16
494.43
467.40
542.05
481.32
535.25
530.93
796.80
692.46
740.81
634.07
890.07
794.27
806.72
587.70
432.28
524.44
463.60
478.35
666.10
637.67
785.74
665.16
2467.57
771.83
826.80
789.16
928.56
790.33
815.31
568.67
596.98
424.85
497.39
436.70
526.10
1089.17
620.63
629.63
697.12
639.63
560.58
467.19
416.53
468.91
741.37
763.65
739.50
641.23
914.18
707.05
774.16
638.98
633.45
538.19
565.77
431.18
502.96
495.72
546.77
663.27
2377.63
755.54
596.52
488.17
478.84
549.93
653.87
569.42
414.12
477.40
478.62
801.87
1031.13
1325.20
641.52
464.15
689.46
513.75
664.35
657.54
626.71
462.34
529.39
674.83
448.36
2199.35
750.69
506.03
458.92
455.89
454.99
637.15
963.70
999.54
1126.94
1043.47
940.85
647.72
630.16
454.49
533.59
521.21
554.80
546.35
628.92
616.41
587.67
531.01
709.93
652.64
2349.29
651.61
512.44
558.69
415.94
365.43
489.75
479.94
534.12
600.14
653.42
463.30
667.18
935.82
891.31
717.68
779.91
709.55
739.82
801.31
998.04
958.96
912.34
765.01
729.96
2286.30
381.81
382.24
411.21
448.53
469.72
403.92
433.14
453.03
577.28
499.07
693.12
649.95
1349.19
683.60
785.13
621.58
746.83
698.32
645.87
577.01
658.07
614.17
607.31
716.13
954.97
988.57
966.17
761.95
770.21
539.75
629.55
573.40
572.69
522.77
549.81
466.52
520.61
1715.00
473.16
415.72
469.17
536.47
684.35
615.89
677.36
527.63
625.62
560.00
653.25
555.92
755.33
521.88
619.50
540.56
631.53
665.85
720.05
597.94
642.45
645.93
624.66
535.54
686.24
743.41
782.80
813.94
1111.35
937.30
787.27
454.84
415.54
599.84
506.34
365.46
526.02
1695.09
361.97
462.29
479.95
547.70
712.68
715.94
737.34
663.54
706.54
659.34
710.07
575.18
917.29
669.33
706.17
643.95
813.17
757.13
826.35
707.65
486.81
652.10
575.53
459.81
916.45
1260.50
1571.97
1529.67
1337.05
786.57
472.36
999.62
875.65
578.17
430.00
408.24
2288.64
559.48
583.82
625.71
806.81
585.17
587.85
641.16
861.64
730.32
862.53
686.93
652.64
1090.91
548.81
451.40
421.56
434.49
461.77
452.23
461.56
404.21
481.69
513.82
498.95
523.75
750.77
613.67
704.47
627.04
660.57
622.02
654.43
503.49
557.57
546.95
648.26
659.30
2377.23
863.76
944.02
734.70
702.53
531.26
617.83
461.60
603.24
449.54
517.72
532.02
604.35
1015.20
381.20
411.88
657.82
601.39
667.09
523.79
561.87
476.26
614.58
474.74
584.55
559.88
811.55
585.11
681.70
583.26
666.31
593.77
804.58
729.96
785.39
620.56
646.22
532.06
2169.01
466.15
586.86
494.48
570.53
450.19
553.14
492.59
507.16
463.60
568.09
504.46
617.71
1311.60
745.48
655.97
609.20
565.82
657.19
629.85
687.75
609.27
719.94
701.50
712.74
602.66
610.98
493.84
676.28
675.81
628.15
548.58
645.91
678.59
815.16
712.94
776.36
847.96
2367.24
581.17
496.86
400.24
501.09
380.32
609.89
544.04
714.53
567.73
535.84
446.25
446.36
1008.59
479.42
471.12
637.49
591.16
656.96
540.13
658.31
646.81
829.83
753.32
767.61
424.01
439.78
328.66
450.52
519.17
757.52
686.87
771.21
674.97
730.55
592.46
641.02
534.04
2152.46
511.54
607.64
761.93
1178.52
1102.01
1106.39
809.38
904.32
585.89
371.68
681.16
3225.15
1412.38
1000.40
384.31
615.40
739.82
943.77
946.69
902.54
708.66
707.06
617.59
762.71
858.32
738.62
489.79
529.99
509.58
615.93
555.00
601.43
531.40
732.40
687.56
778.27
525.51
796.12
431.83
416.01
407.40
506.59
549.71
621.82
584.00
542.66
462.69
532.11
505.99
2118.93
566.25
681.83
710.98
548.86
423.30
492.81
495.51
576.24
756.60
944.04
960.61
1072.44
1410.25
690.61
595.32
647.69
528.01
566.40
552.14
570.05
519.63
491.10
336.66
435.28
1929.48
482.02
345.12
443.57
464.85
584.47
521.01
610.69
495.54
573.90
447.70
514.72
572.23
1224.04
594.41
649.65
657.17
823.80
761.62
758.11
738.34
733.87
479.11
574.06
405.99
506.48
577.90
647.69
726.83
742.96
649.40
738.81
581.58
621.32
360.26
338.39
426.21
666.89
2031.24
972.35
883.30
794.25
602.76
560.54
539.10
608.96
551.75
543.54
501.72
580.88
483.30
1299.35
536.95
665.59
493.42
590.87
538.06
594.17
555.80
550.64
528.51
651.49
734.25
928.65
928.64
764.53
503.71
375.40
415.03
401.74
473.12
704.73
584.63
515.58
472.62
377.36
1853.40
742.07
646.39
785.01
573.24
601.57
504.53
697.10
558.57
662.84
725.38
869.82
703.80
1357.89
653.17
599.19
403.89
541.73
773.36
912.99
788.81
788.58
536.83
397.85
503.30
837.02
1055.69
1162.19
808.63
558.10
485.03
492.39
498.21
713.23
703.93
650.26
384.07
312.55
1079.67
395.66
401.51
453.85
394.13
452.76
439.18
547.74
576.42
661.73
545.91
523.71
433.49
569.27
576.42
719.33
755.10
747.32
579.47
680.61
535.67
678.75
590.25
692.67
583.61
2000.37
718.92
758.72
653.94
785.25
657.21
653.50
551.19
540.61
481.59
619.76
647.72
698.62
1249.13
801.82
631.44
755.11
643.56
772.71
436.80
388.33
372.92
523.32
371.26
424.28
493.28
649.39
709.76
800.89
751.24
760.34
489.92
467.54
306.49
394.27
376.04
526.36
488.42
3649.08
648.64
797.87
590.00
688.27
539.57
651.86
587.17
557.83
442.55
569.63
550.94
646.96
1217.70
704.46
648.67
747.53
789.22
824.57
727.32
849.34
663.15
601.97
623.25
626.57
699.32
859.82
742.48
791.25
567.01
354.06
550.05
884.10
962.10
406.62
431.73
606.77
403.29
3673.64
557.54
697.67
592.04
699.08
689.16
639.96
555.60
632.04
568.84
553.31
619.38
622.14
1362.16
785.41
790.66
903.43
657.44
674.74
606.84
749.18
574.73
457.88
441.60
550.99
603.68
870.86
643.64
593.88
456.98
584.98
623.49
735.67
649.33
638.77
400.97
408.66
492.03
1885.13
691.97
792.18
561.30
619.94
489.31
454.26
398.73
439.79
546.41
742.45
658.51
718.93
1166.45
769.27
719.81
818.32
793.90
736.25
540.03
592.14
587.30
676.88
644.06
586.23
369.91
497.79
470.10
575.94
531.27
652.18
566.43
618.32
536.87
678.77
650.57
671.53
645.35
3711.18
554.70
497.49
444.94
552.43
373.32
443.17
611.25
741.81
677.06
585.12
486.09
618.04
1149.33
804.66
676.58
814.71
694.04
742.14
562.65
682.46
538.59
635.59
510.18
509.09
472.65
651.75
581.42
640.24
577.39
565.92
568.55
730.05
677.43
578.17
386.82
634.50
591.94
3484.08
736.51
716.93
534.30
597.89
519.51
582.19
547.45
570.55
491.84
539.83
499.15
591.64
1090.53
570.00
491.37
541.44
645.67
966.24
1002.55
970.69
482.53
524.26
622.84
753.41
1224.25
410.58
547.96
412.99
471.35
644.76
680.96
791.42
717.32
794.69
602.51
564.89
435.40
446.34
391.99
378.70
420.02
422.38
597.59
856.32
831.88
936.53
760.11
856.02
722.59
3730.69
635.60
567.20
550.60
540.41
402.08
441.60
376.12
490.68
508.93
619.45
621.70
725.95
1313.31
846.28
801.11
837.00
640.56
596.64
508.44
322.58
386.56
366.19
434.80
568.56
614.76
996.93
845.76
1026.75
742.76
441.71
379.33
493.75
675.37
737.48
425.68
452.32
389.89
2313.39
592.29
631.69
606.27
682.57
602.77
632.69
472.72
507.98
457.83
593.66
474.90
560.14
754.65
676.41
649.25
816.12
776.43
787.01
754.83
921.91
672.61
562.87
347.59
359.91
559.88
779.19
650.75
658.52
586.70
508.26
418.33
496.66
426.36
648.12
575.23
687.06
585.22
3949.72
411.16
547.19
557.80
692.03
662.53
716.41
782.25
837.75
723.75
789.64
396.93
607.94
1270.51
874.28
857.23
958.43
860.89
612.38
889.30
1375.81
915.67
559.09
808.79
911.03
2020.08
795.43
570.85
516.17
507.93
600.63
540.63
624.28
519.93
589.61
613.18
730.32
698.06
933.86
718.97
723.54
464.82
446.90
444.16
459.31
415.39
521.86
422.73
634.08
637.49
3825.14
681.86
758.56
577.41
641.84
580.97
681.37
564.83
629.95
560.77
671.76
632.36
728.98
1316.24
662.72
548.56
639.11
589.63
630.66
656.16
749.20
464.68
433.18
457.18
408.72
478.37
779.76
691.12
603.91
517.21
540.43
498.56
551.88
564.44
608.35
526.55
542.90
719.50
3534.90
1258.52
1270.52
824.92
761.25
426.73
507.56
431.84
349.86
414.78
420.03
440.37
452.83
527.49
480.15
362.36
509.32
456.33
560.68
636.19
701.51
624.15
593.41
378.39
431.56
1231.16
805.44
766.97
852.67
824.02
834.83
663.27
749.91
633.14
615.96
575.26
550.58
502.61
959.26
445.03
564.30
451.06
612.98
551.24
711.53
686.32
725.69
715.75
762.44
831.20
907.25
830.29
780.91
402.48
480.71
477.61
409.17
424.98
404.55
452.38
658.01
610.80
720.83
1299.18
794.95
599.81
585.72
530.36
623.73
567.72
556.77
429.38
567.05
560.86
572.27
472.22
790.54
529.62
426.63
408.02
551.03
533.61
599.80
585.33
686.71
662.20
887.25
901.13
951.35
1050.13
911.57
849.94
621.49
444.30
465.64
376.99
445.48
578.93
660.08
600.06
685.06
1286.55
716.76
607.59
644.63
549.73
618.17
510.98
662.68
716.03
979.49
954.13
920.68
449.12
1095.08
736.83
419.25
573.52
736.34
508.01
691.87
906.05
971.16
705.64
774.38
636.36
3653.09
626.22
581.26
481.42
510.57
379.21
439.74
430.22
409.48
381.24
557.20
646.11
847.42
1346.72
540.15
360.05
443.94
487.48
714.20
512.96
642.49
505.15
602.42
531.79
555.30
431.75
609.82
705.01
904.12
809.12
902.52
555.05
403.23
513.52
717.13
786.60
796.01
504.95
3666.93
450.39
478.71
471.31
535.46
478.58
512.03
431.95
617.17
599.95
574.06
725.24
746.47
1445.13
833.99
523.85
390.79
328.33
544.33
566.22
636.44
601.91
772.30
802.25
730.87
631.50
726.56
677.47
751.90
602.69
678.36
529.72
637.75
599.38
667.78
592.61
661.46
459.65
3656.34
492.06
494.59
482.97
424.16
369.81
486.24
443.78
532.31
569.30
702.20
709.28
662.98
1260.72
531.78
427.23
603.60
483.88
684.30
670.21
734.03
584.51
620.05
599.82
806.91
602.55
868.14
737.31
751.39
475.09
436.50
510.15
391.19
409.26
621.99
535.89
581.98
566.80
3504.42
684.36
655.82
614.94
660.29
627.37
644.41
536.30
502.98
381.88
650.87
671.32
656.08
1152.00
539.85
479.84
561.82
531.64
718.39
738.27
786.42
663.86
649.86
516.01
573.46
575.66
703.35
573.28
514.10
370.29
497.07
601.15
920.73
848.81
923.90
687.32
776.17
490.62
3871.31
742.91
412.66
544.87
666.33
533.23
507.09
383.41
622.80
651.65
662.74
590.72
659.71
1347.51
751.51
597.66
583.01
562.13
739.41
631.53
688.32
427.83
415.68
426.81
526.85
606.11
859.62
755.96
877.38
693.41
745.77
612.86
538.99
462.04
467.00
408.84
367.76
370.75
3492.55
580.08
578.61
509.64
746.67
660.36
751.75
494.37
573.10
429.53
599.69
451.78
465.38
1100.12
577.42
499.14
657.89
564.95
604.25
720.86
887.23
711.45
691.07
537.46
618.33
627.03
786.87
844.17
1099.10
1093.13
1122.47
591.87
706.36
1194.83
601.05
433.15
748.42
680.15
956.19
801.41
763.90
674.08
823.76
765.15
767.47
532.67
452.44
413.23
393.98
385.57
3417.25
598.97
731.19
637.41
688.99
560.61
572.52
455.22
498.26
343.02
562.59
488.99
563.65
1306.52
613.68
595.55
688.99
578.67
908.21
879.77
943.13
868.92
744.94
485.06
467.33
3336.19
513.33
551.53
556.48
484.03
524.12
464.16
429.24
463.17
649.76
573.77
546.31
419.07
1065.36
439.83
545.32
551.92
744.47
727.09
752.06
644.90
651.78
591.46
699.54
425.95
407.99
525.93
650.45
587.17
740.87
649.49
643.94
458.58
575.92
519.60
579.14
579.73
574.87
3303.69
643.70
666.88
833.39
728.74
759.57
683.39
705.29
528.28
648.77
569.81
543.48
615.90
1441.27
1011.93
763.59
372.00
473.30
538.57
612.20
382.56
515.19
459.65
592.69
503.62
3455.68
533.43
392.40
520.14
410.55
373.98
544.79
623.89
710.18
504.76
459.94
381.39
668.59
1395.42
978.08
806.35
691.59
595.33
779.31
716.98
727.65
584.29
641.67
489.30
675.40
3192.40
592.97
424.48
500.45
437.52
540.34
492.32
543.17
444.84
426.66
394.78
338.54
435.23
1177.89
876.18
952.14
498.54
438.76
690.81
398.20
533.57
879.78
867.64
901.04
650.00
750.83
735.02
696.39
589.98
674.97
571.68
660.58
628.58
695.72
639.38
637.67
519.60
656.14
3249.06
611.94
599.09
777.82
649.99
583.50
502.03
633.70
627.86
770.11
618.78
602.80
556.45
1087.96
629.39
685.55
593.88
854.23
729.44
869.38
613.61
462.70
524.06
724.56
777.41
548.89
547.55
440.12
398.46
584.11
505.78
561.06
418.24
531.02
497.39
639.44
630.12
618.34
3256.98
687.70
568.82
627.75
492.07
691.53
732.06
957.23
885.75
973.66
697.99
674.89
432.89
503.14
482.02
563.52
519.45
662.73
644.77
682.53
565.43
700.98
599.22
715.25
580.56
3350.26
601.08
778.61
636.53
695.56
376.88
418.04
375.70
580.13
599.43
551.36
528.30
447.60
1226.51
570.37
522.83
521.56
605.95
731.76
596.23
731.22
686.16
761.00
595.69
729.08
570.78
836.44
702.02
654.91
473.74
454.63
371.67
476.30
358.27
433.96
442.68
536.66
576.53
3208.67
801.36
789.28
499.09
552.09
469.14
465.50
465.17
599.27
565.04
651.94
574.57
825.94
1159.89
857.13
613.99
774.38
766.34
849.12
681.25
482.54
658.63
749.46
458.58
706.74
774.20
990.07
724.20
625.62
443.47
529.24
464.97
683.36
532.32
595.69
631.58
789.42
676.99
3325.76
631.03
617.70
490.85
509.27
377.93
520.79
452.97
424.99
608.83
654.73
321.47
596.71
1208.47
890.10
937.50
1049.36
875.52
917.16
586.25
518.66
421.63
450.39
478.38
617.69
3257.60
833.31
858.55
877.56
626.21
671.81
519.16
646.68
528.57
504.07
450.97
487.35
468.23
1057.05
535.60
533.77
416.52
442.73
426.91
547.52
564.28
767.75
695.62
746.25
492.77
483.84
626.88
547.39
598.78
805.28
650.63
670.85
474.75
497.35
417.97
555.97
491.70
581.31
3250.44
480.98
436.45
579.00
497.24
496.67
615.11
617.49
617.52
673.21
649.67
902.23
855.45
1356.41
660.89
611.78
457.07
441.70
438.02
495.20
522.29
621.15
554.84
567.01
523.53
587.66
764.86
775.74
703.62
663.63
496.93
511.01
463.51
536.45
427.68
534.05
560.53
551.81
3226.34
650.20
539.84
725.73
662.35
725.10
500.67
518.67
459.04
517.39
604.63
945.67
1044.61
1436.58
821.06
508.01
684.16
505.79
410.29
599.65
574.02
698.30
545.50
666.38
562.08
3196.90
746.84
731.19
570.08
419.24
400.59
551.35
561.98
571.89
483.03
630.50
675.65
754.27
1158.32
769.58
599.41
531.58
455.34
489.37
514.85
606.54
586.82
631.13
531.55
649.29
422.44
510.37
453.83
661.28
792.91
987.01
769.67
672.70
444.77
472.74
397.30
483.37
452.05
2584.29
493.10
680.13
692.78
726.95
620.05
496.46
428.58
462.75
355.22
601.11
704.67
850.81
986.15
888.90
818.03
862.95
865.87
1020.69
843.78
740.32
507.15
543.29
399.06
442.92
1923.45
417.94
427.84
518.27
508.92
566.60
462.41
553.95
504.43
631.07
519.49
578.54
434.40
691.98
488.68
826.33
907.31
985.27
761.73
607.91
380.72
400.18
389.27
474.79
471.32
3226.74
604.14
648.98
538.44
537.37
568.23
689.98
621.58
690.09
597.39
639.45
623.04
719.34
1101.87
728.89
565.32
582.75
412.54
523.99
445.27
559.03
528.17
666.15
600.50
686.24
625.01
759.50
580.97
592.55
584.08
726.41
789.19
1232.47
885.61
511.53
999.21
1082.36
546.70
790.41
492.35
667.70
794.80
875.76
738.15
927.46
674.88
558.74
466.17
672.16
688.69
659.02
594.20
521.29
452.71
483.56
429.70
517.57
459.97
499.07
431.30
494.59
530.57
558.97
3081.12
735.09
542.35
698.07
545.41
590.85
551.96
620.34
602.39
619.22
574.40
597.61
617.89
1339.15
661.93
633.16
445.85
634.25
640.70
761.83
634.99
561.79
425.72
487.99
490.55
601.06
606.45
634.56
673.73
809.22
633.47
839.50
803.19
725.75
551.15
571.35
448.84
466.51
3103.41
436.97
422.72
502.07
508.06
757.41
547.16
463.23
396.91
573.41
562.24
482.01
571.04
1322.61
719.00
757.26
645.86
842.76
786.08
934.71
742.20
939.25
724.93
661.20
469.44
369.42
479.69
480.99
478.24
658.33
554.81
573.65
613.54
678.85
459.02
491.86
524.28
568.64
3025.65
684.67
685.70
718.79
612.48
637.14
477.60
536.09
549.77
838.17
743.76
679.96
524.99
1103.93
571.44
722.88
847.57
1135.35
827.53
562.53
952.90
1027.84
638.77
417.32
491.98
2594.88
497.02
635.50
825.49
998.46
759.87
720.38
579.97
621.06
530.12
599.30
433.65
467.28
699.75
618.10
463.25
522.52
556.42
696.81
669.96
722.39
589.17
686.66
495.12
512.60
508.19
771.86
655.08
785.68
605.08
647.91
561.33
623.31
397.57
427.17
398.82
547.98
530.13
3186.03
628.49
699.39
729.35
844.74
757.60
849.89
649.64
601.47
462.21
469.82
462.67
510.81
1010.18
671.77
553.00
722.97
671.19
652.68
524.68
541.88
365.16
458.90
395.70
444.60
468.33
654.08
547.49
724.53
571.71
533.40
494.99
544.77
567.06
724.60
678.87
744.61
540.64
3045.51
695.46
906.91
907.70
839.06
593.09
692.30
498.29
513.04
457.55
485.71
398.20
442.69
1153.62
697.52
516.16
548.17
529.70
538.25
540.10
609.78
584.07
697.96
541.80
585.08
416.08
569.04
514.88
674.10
594.93
614.20
529.51
711.09
659.98
858.58
667.35
792.05
572.65
3108.23
432.55
517.84
527.03
528.90
454.39
650.18
755.55
842.13
660.93
676.63
538.36
613.98
1064.82
543.50
419.64
460.28
430.10
590.84
846.12
1173.15
1086.29
847.89
394.10
429.09
2012.00
920.06
735.77
695.54
562.92
528.61
487.20
488.05
406.41
528.07
476.34
622.24
558.84
1031.12
523.33
554.48
404.13
593.52
626.92
659.86
632.86
832.63
636.31
770.03
586.83
664.09
660.80
658.59
553.41
605.33
531.74
656.79
473.84
559.04
487.12
641.02
516.94
672.77
2866.07
635.51
458.63
572.40
469.79
670.03
591.60
759.43
729.90
827.22
532.15
518.44
409.14
998.35
517.30
601.85
617.00
795.40
725.38
649.99
644.29
766.23
690.61
779.81
663.08
605.17
514.69
504.84
467.23
445.12
473.54
561.33
486.08
694.97
552.12
594.12
524.46
662.61
2943.07
610.21
452.38
553.22
483.88
673.39
584.35
783.87
685.34
768.56
563.60
553.91
489.71
1199.27
622.48
692.43
612.30
696.50
674.97
798.13
840.31
983.45
738.84
549.57
451.32
405.96
516.28
472.06
414.47
667.32
728.25
778.07
621.22
728.79
689.90
719.04
616.74
648.57
2915.17
458.16
376.52
516.72
380.89
541.42
494.90
548.58
607.29
703.19
520.59
624.95
618.61
1152.33
590.91
631.15
675.54
769.43
637.64
563.38
460.81
511.22
426.78
633.44
721.07
787.79
748.47
703.31
630.58
610.58
506.30
646.70
554.08
704.76
644.44
853.58
889.34
774.42
2879.80
553.88
403.75
498.06
531.38
773.81
770.07
871.53
961.04
1030.68
791.92
967.72
725.88
614.16
579.25
889.86
721.71
464.89
556.74
764.15
568.49
693.05
660.49
732.26
665.88
2951.50
709.15
716.61
595.08
653.85
637.50
729.38
601.47
704.52
453.81
620.55
577.01
567.60
985.03
551.97
509.92
550.72
510.52
476.64
447.57
547.04
481.52
583.19
452.83
661.68
568.07
788.14
597.43
689.17
638.88
701.80
542.72
674.39
587.50
552.94
533.49
550.49
607.60
2946.54
840.40
917.09
675.72
644.57
418.17
511.99
515.71
587.91
592.96
674.21
628.25
795.09
1337.27
1077.32
801.08
735.01
502.72
586.22
513.86
549.94
469.83
500.43
425.14
662.82
2848.61
726.71
513.88
526.57
494.76
669.63
737.53
899.65
715.78
759.56
516.28
498.59
1073.66
1666.69
676.85
524.02
389.04
568.45
395.18
568.82
546.35
675.55
662.34
816.41
698.77
2832.03
744.65
693.61
566.39
601.44
553.25
637.72
709.08
899.92
763.77
676.45
441.68
512.67
929.38
564.17
500.95
676.08
757.77
938.62
707.02
602.83
498.21
673.69
533.55
519.62
551.25
904.87
569.79
901.22
856.12
836.01
605.53
559.65
454.36
568.22
522.96
578.71
614.73
617.63
616.61
664.26
519.43
633.74
618.54
598.93
586.15
798.06
718.24
811.22
640.90
581.54
3019.22
531.10
606.55
939.80
969.67
1341.73
1246.77
1158.38
868.51
559.16
703.02
851.07
2614.34
686.18
407.88
471.18
566.98
691.44
563.14
529.49
512.85
623.53
541.36
631.00
661.84
1029.42
623.57
659.70
550.95
520.75
473.41
573.75
564.13
729.42
622.82
735.54
556.37
2802.03
534.91
578.37
519.67
614.03
578.43
626.78
643.71
612.00
577.24
637.07
532.52
481.25
934.34
514.42
460.16
763.79
699.36
753.73
678.53
626.47
508.50
596.53
500.77
554.46
528.97
843.88
609.35
693.68
631.34
800.68
620.48
703.17
720.29
677.58
669.16
613.98
486.73
463.18
464.29
464.69
555.36
769.75
725.01
973.37
835.22
902.66
722.49
830.76
629.27
590.90
2111.24
533.52
450.73
643.88
550.23
615.34
583.00
619.50
458.60
501.44
486.83
585.01
466.63
860.08
621.80
679.97
565.63
658.74
649.59
777.38
685.91
771.23
642.09
739.89
685.34
792.83
678.34
529.22
466.98
493.88
549.07
621.35
531.52
504.65
518.57
822.93
928.44
1009.76
2742.16
770.36
459.14
579.90
490.70
538.26
493.38
556.39
533.31
556.44
497.21
544.03
602.45
931.70
618.23
742.84
680.44
767.72
712.86
742.47
781.68
843.56
744.67
690.96
437.70
603.17
538.52
484.62
637.23
674.61
655.67
829.94
692.64
729.28
700.51
655.38
589.38
698.46
2659.46
596.09
596.54
646.88
546.09
587.98
486.83
546.74
625.01
597.39
520.34
629.77
476.27
1191.95
513.23
555.28
584.35
645.47
455.45
590.06
550.33
689.37
633.14
660.28
550.01
687.56
762.37
689.70
549.12
669.00
550.13
674.01
720.57
743.68
716.30
756.66
639.81
841.82
2640.49
843.32
775.93
690.07
640.51
511.80
690.33
601.84
443.98
551.02
563.61
723.76
608.97
1284.00
544.10
633.66
540.14
726.38
593.76
662.35
506.66
480.33
466.30
554.15
431.20
635.39
652.02
639.25
613.98
601.05
647.66
696.25
556.18
650.62
528.83
656.65
663.64
827.92
2643.28
953.23
867.08
726.61
480.32
557.52
444.27
619.76
801.86
1058.27
902.78
962.79
881.28
1136.43
817.09
693.39
526.44
500.56
611.89
737.70
779.96
652.26
476.77
584.53
635.24
2690.08
444.09
490.00
439.66
560.44
540.96
617.18
485.46
737.13
761.58
773.09
625.72
666.57
763.00
735.99
576.04
690.55
551.75
597.83
596.90
734.74
764.02
770.00
800.19
830.33
553.70
678.61
642.57
877.59
775.25
775.29
483.72
623.05
547.37
540.61
431.84
394.25
397.40
2716.93
396.72
555.54
473.89
699.80
721.05
779.64
608.24
722.54
627.90
734.62
539.90
590.85
1064.84
533.00
507.87
619.63
524.67
641.96
695.44
827.03
761.40
747.16
694.74
956.49
869.53
1034.30
727.97
478.23
374.18
551.12
519.48
690.92
541.82
605.45
446.45
480.10
461.99
2869.40
578.58
612.43
472.66
642.68
565.78
638.36
526.57
658.80
599.33
676.46
590.73
714.87
879.83
818.46
576.80
639.25
490.79
528.11
558.95
693.85
610.52
692.87
619.18
656.95
557.28
857.82
668.67
698.89
539.58
551.44
640.58
664.02
524.99
618.50
559.31
645.63
740.77
2620.13
652.29
700.26
640.66
732.65
669.23
746.16
579.83
622.93
562.92
598.28
437.55
509.66
1114.54
612.49
439.04
541.74
596.94
578.35
510.72
614.05
679.82
780.08
619.06
602.90
605.78
806.48
568.20
674.10
578.89
684.27
640.38
719.88
636.82
734.45
549.58
526.60
390.19
2597.40
593.83
674.36
572.32
589.70
561.01
641.51
657.03
743.27
699.90
669.32
615.47
621.98
1068.49
521.55
537.21
675.53
660.47
832.61
671.81
832.07
504.07
480.13
479.07
641.68
751.97
861.80
663.07
716.62
688.72
716.72
586.66
627.83
566.52
622.99
563.71
650.58
695.59
2620.23
825.30
833.01
506.22
536.08
508.13
435.08
527.79
737.70
731.38
755.08
567.51
486.66
1037.13
436.23
539.43
706.44
543.61
665.95
737.39
777.79
659.88
777.89
773.59
857.60
619.80
616.56
483.53
493.04
494.28
653.12
557.96
647.49
639.11
731.25
611.81
640.88
696.17
2605.12
681.21
699.55
596.57
731.77
642.38
747.27
652.14
700.20
493.49
537.78
494.36
515.77
1036.88
673.61
589.93
669.47
482.50
553.95
466.95
434.30
450.85
532.87
423.51
549.42
501.69
678.54
546.24
675.52
682.96
835.52
790.10
1084.09
992.98
836.99
511.57
663.59
451.89
1243.62
625.31
770.40
613.27
551.00
415.68
571.38
521.03
629.62
533.98
464.60
405.22
540.85
612.58
741.15
612.35
766.21
592.58
707.16
607.29
666.33
629.25
745.43
613.69
663.44
2416.91
589.42
474.92
503.66
419.10
527.99
373.70
500.17
465.55
555.33
532.97
662.19
562.83
1269.66
572.82
732.22
644.99
785.18
763.99
936.69
861.35
904.25
716.16
671.86
456.65
462.14
424.06
670.61
562.59
724.34
604.24
705.60
588.84
574.33
482.85
678.92
642.98
666.24
2425.37
840.18
713.90
788.55
480.43
423.43
504.62
500.07
462.15
467.31
541.01
644.65
562.13
1285.34
722.42
660.83
572.00
700.59
677.45
739.62
606.67
818.12
853.39
1041.35
888.66
814.53
451.41
485.09
459.89
596.99
589.97
677.58
678.66
802.44
624.96
745.82
616.65
633.46
2201.03
428.00
437.19
593.50
522.40
589.98
571.60
614.46
634.02
700.02
494.08
557.67
453.33
729.82
493.53
557.70
409.88
498.67
470.12
579.60
539.80
672.32
620.23
831.29
731.83
716.55
567.12
562.94
655.86
732.40
611.32
660.01
573.06
641.60
617.28
697.88
576.05
640.30
2275.97
822.43
682.26
816.76
587.56
617.93
591.37
714.04
665.53
914.91
685.36
735.60
517.31
1238.68
648.63
820.44
611.19
732.45
643.72
788.36
737.42
765.02
582.15
531.39
423.39
388.15
535.17
484.49
421.34
479.32
428.47
541.21
458.45
490.94
442.36
516.59
546.71
627.40
2427.28
779.00
781.50
908.54
644.37
846.46
681.52
751.59
644.94
662.27
517.99
572.56
528.04
1325.60
662.55
699.78
754.17
743.95
411.57
453.37
447.00
767.44
688.34
779.42
752.36
741.90
752.36
778.87
832.95
976.54
549.39
496.02
530.43
457.85
385.50
560.16
587.29
616.96
2295.96
593.67
435.13
568.94
584.46
679.31
709.56
869.83
749.11
911.34
756.05
681.81
361.77
1164.88
545.62
730.63
667.64
606.57
448.75
458.26
381.07
673.59
678.07
748.86
582.67
629.44
494.41
431.80
396.29
734.27
733.35
801.07
790.97
964.46
668.09
561.87
447.35
466.10
2205.80
515.91
555.28
649.67
606.22
766.53
831.32
1023.92
914.02
912.90
713.78
624.42
455.12
695.31
478.31
488.28
459.42
518.26
381.76
551.14
550.61
796.35
789.09
956.41
745.13
734.73
608.62
539.86
485.47
453.12
473.08
551.33
587.28
789.23
774.57
858.32
587.48
563.26
2267.63
717.20
773.62
643.01
409.14
481.08
466.47
588.18
593.31
764.04
543.74
541.12
520.77
1362.83
541.82
592.24
565.59
613.02
480.70
602.16
660.69
673.00
546.80
653.72
584.38
755.64
846.78
911.86
678.95
705.73
691.43
759.49
636.36
649.38
536.36
474.66
418.97
512.24
2121.53
511.20
555.80
555.82
372.35
434.58
424.19
483.85
471.62
529.44
440.75
549.70
581.85
1351.38
744.98
865.73
731.35
699.48
606.86
894.93
832.06
816.11
691.09
729.34
539.61
583.46
495.44
554.69
781.80
441.00
401.13
593.74
596.09
735.02
587.33
686.21
610.18
691.31
2299.75
1051.33
1014.30
1122.91
864.34
702.38
494.83
556.84
538.06
795.59
616.25
662.02
2225.51
458.99
429.96
436.37
366.26
474.90
412.10
531.87
490.29
630.48
590.48
825.81
708.73
1400.27
803.67
842.41
690.80
559.40
512.31
587.25
528.96
537.22
376.33
488.40
515.95
588.68
574.89
648.60
566.25
661.71
493.66
547.63
379.63
556.61
536.38
630.85
634.72
744.10
2159.05
870.48
643.04
694.89
603.21
755.86
578.83
665.79
505.21
568.20
373.62
640.03
467.89
1159.32
501.20
549.49
423.33
380.88
439.16
569.36
582.90
734.65
542.98
741.79
632.77
731.09
713.00
587.11
649.27
771.36
696.96
796.39
721.10
865.18
685.74
914.26
672.67
732.30
2132.02
589.16
500.95
400.01
375.47
489.14
490.27
657.09
573.37
583.43
456.09
603.45
593.54
1392.54
738.19
830.52
492.85
388.78
398.58
606.06
653.93
625.22
559.38
722.33
559.83
577.46
469.13
532.37
424.06
469.36
463.59
669.22
611.35
695.68
673.25
748.79
664.83
807.08
2125.50
640.35
594.32
644.62
610.13
684.88
580.25
604.96
547.00
621.10
581.50
769.41
657.93
1315.72
555.24
778.68
569.43
605.22
315.82
422.97
491.21
701.25
575.76
743.13
706.65
712.90
725.07
722.63
552.97
650.19
676.80
719.37
570.31
626.78
523.76
426.37
307.35
430.77
1857.36
521.59
474.26
610.30
520.63
574.72
452.25
619.38
528.59
785.65
633.85
523.52
384.59
1033.49
587.39
911.65
920.74
915.25
809.43
1042.72
1186.44
1423.58
713.18
381.09
700.40
1074.27
471.60
500.37
452.91
537.66
461.84
533.08
469.04
554.20
505.25
623.26
537.14
586.22
694.62
914.79
919.28
855.34
555.28
587.62
472.12
466.70
384.33
490.08
367.23
377.46
1998.20
449.07
624.53
788.87
582.19
713.11
608.97
743.59
684.30
800.07
644.48
646.59
487.86
1131.70
578.16
644.40
382.91
545.92
341.24
479.18
612.43
879.31
899.97
973.36
617.66
2272.39
465.92
628.93
716.88
697.22
422.28
384.28
450.07
570.48
542.18
807.81
627.72
794.91
1315.65
761.44
639.71
716.83
615.73
657.81
478.96
480.70
408.60
575.53
555.77
673.52
643.80
743.98
395.15
398.90
384.16
613.32
684.50
760.48
703.95
796.79
607.43
537.50
361.22
2067.12
716.05
979.34
749.80
897.77
717.97
749.35
635.70
695.15
569.96
595.73
358.90
439.90
1145.43
792.25
611.09
698.26
553.78
528.25
351.64
471.58
371.00
521.44
385.77
513.19
469.70
664.08
527.36
565.79
481.98
465.50
540.51
689.46
568.78
627.91
632.35
779.46
717.33
2190.75
707.34
741.44
537.09
561.29
520.01
571.96
539.02
667.92
607.88
721.32
558.03
658.35
1280.57
548.72
484.44
510.91
478.33
656.98
525.89
497.91
528.86
655.00
614.59
573.33
555.94
753.04
630.03
605.02
712.88
778.38
672.52
796.95
652.82
795.80
728.72
736.80
455.52
1798.14
419.89
646.42
674.97
824.96
567.93
508.60
426.02
547.14
615.72
581.64
502.97
757.64
1392.64
891.53
720.89
911.69
979.53
879.48
473.03
471.00
793.65
598.31
361.83
512.48
1672.74
654.76
628.00
862.17
723.48
822.16
713.91
925.92
703.34
793.88
596.35
631.19
506.00
1267.54
522.76
480.42
406.60
411.40
416.58
579.59
518.88
610.44
564.64
565.97
429.54
517.95
617.13
571.07
547.11
673.86
581.11
704.64
657.42
730.71
681.16
850.29
781.28
842.16
1852.40
919.26
803.67
1018.19
767.12
909.57
805.24
1014.67
1055.50
1078.90
544.20
522.01
1756.89
404.08
544.38
562.32
614.57
495.32
370.09
437.27
456.01
537.53
419.45
499.66
343.87
743.93
462.92
575.38
589.90
599.11
453.62
439.38
578.49
650.94
544.37
500.21
423.13
693.35
910.11
912.41
788.77
885.45
706.46
947.94
953.80
910.13
599.04
614.44
427.49
527.16
1341.36
708.01
554.60
727.40
661.69
717.38
601.51
738.49
692.26
736.00
478.99
565.04
506.03
1154.33
584.27
703.62
631.42
693.98
620.32
592.77
367.60
457.12
411.64
518.51
415.93
450.22
665.98
785.33
576.99
698.47
582.51
644.23
552.09
548.20
384.51
502.70
438.92
598.86
1544.87
601.67
542.45
713.67
591.70
645.62
577.25
626.79
584.95
649.43
597.79
681.12
608.89
1293.76
704.04
780.07
773.10
1138.94
1119.57
1012.68
390.89
1365.90
1302.49
409.83
711.38
943.07
672.62
667.92
549.08
786.87
781.60
902.49
713.02
623.17
582.64
665.87
806.59
2974.02
1041.07
1066.03
705.30
564.21
314.53
458.07
356.70
396.97
488.87
544.07
450.82
3756.73
496.37
656.86
570.74
667.54
541.69
553.15
584.46
623.48
501.74
592.82
552.44
601.00
1192.78
808.52
740.72
833.53
819.47
956.14
751.19
690.45
406.79
479.97
458.23
629.31
590.86
703.72
636.43
937.61
801.38
892.01
703.88
548.73
503.54
663.53
469.28
368.43
362.68
3714.05
493.92
604.38
533.00
656.53
512.13
631.15
454.71
485.57
363.26
379.38
426.00
600.38
1145.68
715.31
561.59
608.67
607.81
820.88
800.62
1019.72
836.44
776.74
532.56
607.61
1289.13
706.38
553.86
670.24
605.52
736.95
509.27
625.57
521.10
615.38
502.49
560.26
556.27
1306.54
532.29
500.38
482.84
519.09
552.95
664.76
671.56
791.47
565.12
416.93
365.56
503.44
614.17
708.74
702.35
860.03
610.26
738.21
647.65
718.93
545.65
748.17
592.38
682.78
1350.87
665.19
544.98
612.68
565.87
726.12
705.33
766.25
528.12
584.90
683.26
515.06
443.39
1259.97
589.80
710.98
742.23
853.37
754.58
881.60
782.00
851.59
514.13
546.83
572.66
739.96
843.07
754.83
351.83
929.46
684.76
435.61
644.85
806.55
666.67
732.42
532.78
690.83
1570.08
1053.24
910.61
887.01
684.98
617.20
541.95
593.77
471.70
602.27
585.66
761.30
639.10
867.92
519.42
591.10
414.68
472.34
400.49
532.53
347.07
513.73
605.26
703.20
574.79
700.18
760.49
738.35
576.59
688.82
624.78
731.43
558.74
549.61
419.43
500.05
407.37
489.01
1282.69
735.89
547.02
645.91
492.34
676.20
629.18
811.49
676.71
728.93
611.34
749.51
561.17
1207.49
430.19
513.07
602.73
759.16
681.91
710.13
548.64
640.18
646.79
782.43
612.07
800.75
695.41
497.66
391.80
485.12
441.76
491.37
376.84
465.06
400.77
523.34
413.97
442.13
1274.16
806.27
690.80
774.35
585.95
783.35
618.96
627.85
517.75
644.11
563.30
720.87
746.72
1406.58
943.98
810.06
367.47
443.28
322.92
555.58
493.11
597.62
526.04
643.35
518.01
707.88
825.04
775.24
559.66
514.03
423.35
528.59
583.64
640.47
503.39
698.81
648.64
678.73
1320.85
629.11
468.76
718.40
738.05
943.17
783.11
800.74
606.54
554.17
522.39
597.64
497.27
1076.34
534.47
638.22
597.89
778.60
571.52
523.84
447.93
448.22
376.99
488.35
520.88
756.23
788.36
537.37
404.11
451.16
370.30
797.25
744.47
647.49
460.22
682.40
771.54
808.48
1281.02
567.15
554.29
702.07
718.93
910.96
722.45
730.45
491.23
498.79
466.89
525.54
530.08
1177.73
499.02
744.06
662.41
867.12
730.13
778.38
457.61
417.91
425.09
518.02
475.53
711.53
699.13
687.43
545.16
571.45
454.25
504.02
483.40
527.88
443.78
602.69
580.97
753.42
1295.21
792.11
613.80
623.50
576.64
585.22
470.96
574.90
527.38
693.00
627.67
803.24
589.17
1203.48
681.47
676.90
458.06
510.86
478.09
631.56
507.90
760.18
774.33
1058.52
734.18
1896.30
776.16
867.46
676.69
554.29
434.81
557.26
635.68
538.30
483.21
436.36
386.62
504.09
1298.17
703.07
587.05
519.63
423.54
499.77
487.37
760.95
704.92
723.23
722.08
857.73
740.26
1096.96
880.43
837.62
403.00
414.99
378.22
526.50
515.60
653.02
533.02
649.34
657.35
3082.52
747.78
708.59
463.86
541.36
554.03
777.51
795.13
871.96
741.80
760.01
576.83
602.92
701.22
540.38
454.89
599.69
478.25
638.41
554.80
566.71
418.67
457.43
433.08
609.00
457.49
723.96
479.47
649.75
508.54
586.41
420.87
616.47
622.89
781.88
650.92
794.18
642.47
3593.57
672.00
669.76
602.53
557.80
522.99
748.33
541.81
567.86
618.31
789.44
782.85
799.39
1171.18
508.06
422.53
508.54
672.84
745.25
356.21
562.37
462.83
555.31
483.56
700.29
644.52
902.09
668.02
868.19
667.04
699.43
622.27
662.94
547.75
606.72
565.22
560.56
579.63
3570.99
613.67
658.03
588.44
692.49
635.21
774.09
583.73
668.61
529.36
496.39
500.50
581.40
1339.86
652.72
551.15
615.37
580.35
626.87
540.43
599.26
555.56
581.20
476.33
562.36
531.78
696.29
467.35
745.82
