722.48
463.26
453.97
580.92
756.95
476.47
907.31
557.43
873.05
756.40
704.26
846.48
879.65
1887.45
983.70
709.18
871.45
598.06
390.32
550.76
417.76
881.48
836.55
781.72
869.02
897.63
1072.05
718.80
726.94
879.59
1058.86
1176.91
1148.82
986.67
611.42
890.82
778.72
732.37
815.70
769.35
967.79
537.88
789.43
937.48
836.55
863.65
813.81
839.06
874.72
778.13
855.47
841.52
919.07
726.69
592.42
325.15
508.79
399.54
987.00
870.46
897.28
671.62
851.96
1820.62
870.97
737.90
793.45
821.01
923.30
1051.98
994.07
1118.06
491.75
710.47
563.25
2402.11
819.31
559.75
718.20
809.52
937.33
899.69
807.19
789.06
576.46
950.18
543.32
348.64
1095.05
557.98
682.76
866.93
602.95
721.87
665.49
876.56
1256.80
1219.48
1235.12
918.28
2761.89
375.14
691.55
630.64
729.64
317.07
641.83
772.32
653.82
629.52
900.48
903.90
1204.79
1267.98
1014.53
899.37
878.45
600.47
575.23
566.23
612.25
430.80
992.80
645.27
634.83
1450.77
809.61
807.39
813.99
991.81
828.59
814.70
833.29
868.04
618.42
894.62
468.80
288.20
572.96
876.18
700.97
634.25
703.61
856.39
591.03
713.12
721.40
720.15
887.27
800.60
1835.03
1018.30
1042.66
956.56
1039.33
712.37
908.33
783.85
1275.45
1195.06
1435.92
1223.40
2729.77
1027.23
938.92
899.54
975.06
643.23
663.15
667.96
665.37
791.85
527.99
722.26
2773.96
1012.18
894.17
783.92
806.27
918.40
1006.25
871.77
930.68
1098.40
762.90
763.96
1168.09
846.72
784.74
675.18
664.12
723.28
952.76
866.68
950.88
733.68
691.90
720.23
921.78
1786.46
883.73
400.13
294.46
560.90
365.21
321.40
596.20
397.87
837.66
753.54
887.43
675.91
903.65
724.75
906.15
744.09
848.49
635.04
803.08
610.21
1125.33
813.80
888.85
729.55
1482.01
884.08
906.83
739.52
567.13
749.15
845.60
723.53
831.56
717.92
607.33
186.14
600.63
912.45
643.28
549.90
880.25
630.47
911.57
779.25
850.22
764.37
751.75
771.65
717.43
885.36
1045.02
540.86
429.94
367.58
462.93
665.76
766.95
641.44
1155.31
1135.67
1109.43
753.02
1187.13
784.32
898.55
862.02
902.99
773.64
434.37
579.32
601.58
604.10
859.12
947.37
1770.88
528.32
843.31
732.10
617.18
822.10
758.52
968.32
938.69
927.49
850.57
790.43
763.08
1095.64
685.40
490.94
1025.34
1138.52
1482.35
1450.05
1110.18
710.72
830.58
914.25
930.53
1439.78
1035.50
480.00
474.03
604.41
858.42
437.88
802.37
513.09
784.19
806.14
849.82
3326.94
924.29
832.75
840.96
785.44
884.20
610.80
672.60
635.49
1089.92
794.36
663.00
789.72
917.09
765.06
825.11
757.77
787.36
776.17
976.98
795.75
944.23
1065.91
628.76
404.99
579.84
505.14
605.00
497.36
678.36
603.96
797.33
826.89
679.39
655.96
693.27
747.46
650.94
3353.61
827.22
654.30
713.31
529.27
505.83
831.93
607.76
586.08
857.41
622.60
700.96
517.42
1456.40
844.92
883.47
679.82
847.83
799.22
555.24
661.28
445.63
636.27
627.28
621.22
577.04
836.97
775.62
799.63
937.17
1073.61
1148.00
1019.93
979.52
800.52
753.71
524.30
1197.37
1799.62
1435.04
1000.81
563.39
421.84
809.72
727.74
544.43
717.31
779.53
776.43
912.37
1920.68
881.58
445.42
353.24
639.67
586.52
374.95
534.02
598.81
807.80
997.93
827.01
755.95
849.93
881.06
743.91
769.77
875.87
809.50
751.74
852.28
789.78
532.03
804.98
644.15
569.35
848.75
884.42
818.11
917.29
936.78
945.24
758.05
867.95
754.36
521.68
704.95
678.90
3013.26
834.36
388.57
390.09
562.93
695.97
765.68
498.92
615.29
779.17
757.89
1082.05
1149.69
1419.50
1018.41
797.72
819.44
708.77
1029.09
1019.03
637.06
1080.21
860.44
903.13
578.18
1349.34
780.22
896.82
873.77
944.87
578.29
530.05
304.76
534.94
503.63
644.23
854.59
714.27
1120.28
807.07
674.33
624.24
739.93
767.73
850.01
1007.12
950.56
752.41
463.01
714.43
1936.32
767.59
513.21
821.65
713.86
839.59
895.28
657.07
786.90
906.94
773.90
765.86
913.17
1183.74
569.61
632.27
553.25
877.01
395.32
451.35
633.40
687.36
781.32
716.69
583.21
1439.02
1024.94
1096.00
772.85
993.09
789.23
774.17
1098.41
888.37
601.20
965.07
982.21
923.95
1097.46
1154.35
712.76
625.24
810.62
810.52
1005.45
817.32
870.19
710.78
396.94
581.20
1321.41
522.14
462.25
1017.77
844.68
815.18
850.58
777.18
753.35
937.18
928.36
876.32
958.83
1254.98
761.27
1011.16
1296.96
973.18
1059.39
790.96
570.55
763.92
774.07
746.14
734.92
1094.27
802.92
829.78
925.49
957.63
650.14
529.02
660.27
728.77
577.07
427.31
355.08
1404.46
1087.67
1010.40
787.04
840.26
842.80
769.07
819.30
817.58
906.06
749.08
569.19
725.57
674.26
707.04
592.74
701.71
636.26
989.86
930.04
743.72
825.62
940.77
882.34
1020.65
3074.37
1139.61
622.76
384.80
447.48
749.73
326.98
637.24
736.63
661.29
742.47
764.95
741.37
1374.37
1272.50
1246.34
1161.50
966.60
834.18
740.98
771.15
869.54
593.35
326.01
376.11
762.74
993.95
1165.31
1002.88
923.71
913.97
887.91
864.19
978.76
869.35
421.81
488.36
2696.28
512.17
440.82
698.21
836.59
390.49
873.06
778.13
858.91
788.61
951.17
783.28
908.04
950.50
1076.48
952.03
852.25
307.53
699.17
794.17
612.40
560.74
906.76
744.68
950.36
3124.59
975.44
949.37
1109.91
886.12
1037.26
715.43
667.73
430.82
694.51
865.05
628.93
865.09
598.35
756.59
768.32
710.33
756.16
915.70
1005.62
912.84
1054.27
1071.61
784.99
355.72
1123.04
687.47
781.60
645.50
940.00
660.30
1112.86
996.51
943.55
972.57
1202.95
887.42
1404.94
1013.99
815.35
619.82
370.16
497.28
376.57
376.46
624.69
813.40
1002.18
1020.19
887.95
671.65
1033.79
1069.12
1119.88
962.77
1140.40
866.65
700.60
485.85
831.23
939.57
1268.12
1270.41
977.89
937.34
730.35
949.83
872.64
922.33
883.68
620.78
918.27
911.12
498.08
1173.65
753.29
542.13
857.84
463.89
713.34
627.28
650.38
739.82
925.27
749.30
1035.70
992.57
969.91
969.20
916.36
682.09
479.71
529.14
900.41
618.95
812.12
666.33
1126.29
857.43
2820.40
1008.54
855.50
912.42
953.53
843.31
919.00
634.97
380.80
347.51
439.41
447.01
521.09
719.28
620.46
836.22
849.48
950.57
845.51
830.88
1035.95
905.71
925.44
871.17
560.08
692.10
325.60
1043.90
910.87
541.66
770.48
643.39
1094.86
884.15
780.94
794.30
933.14
939.99
1422.69
1131.93
1341.30
1054.78
770.52
580.56
416.36
497.11
401.28
475.56
1005.82
796.00
1215.37
555.78
693.98
848.42
934.31
1158.27
1425.21
1759.86
1847.98
1476.31
1467.65
904.88
544.72
667.23
874.86
953.79
985.70
879.58
1004.94
802.40
844.86
799.05
978.84
897.36
2853.50
787.51
650.11
338.26
713.12
487.19
885.50
464.00
827.81
628.98
877.12
666.03
957.95
1425.36
1484.68
1468.51
1345.57
916.04
639.16
607.47
596.75
330.65
588.51
791.42
573.52
934.47
683.66
777.83
1040.63
880.75
881.95
685.50
865.40
907.55
336.39
582.98
364.85
3249.66
926.48
898.42
718.61
727.52
897.58
797.50
869.02
956.33
932.51
923.72
882.22
892.91
1380.18
765.86
537.88
541.34
613.05
472.41
1238.49
964.59
1077.15
786.05
510.90
641.43
3043.11
895.94
718.17
886.95
895.65
608.37
690.72
539.52
945.55
750.97
929.26
748.88
788.55
766.15
691.00
711.37
628.04
782.72
971.30
697.71
953.01
670.17
624.06
467.14
945.50
839.41
719.88
623.98
838.07
928.96
864.94
724.59
668.67
680.67
834.73
713.44
862.28
842.90
3161.35
611.50
800.24
258.42
880.09
586.34
830.28
819.83
783.83
741.54
933.43
769.11
671.88
1445.12
1120.29
731.84
1013.93
576.31
479.78
744.04
371.09
267.63
484.10
806.01
781.63
2986.31
1041.97
557.30
846.76
931.60
881.03
833.97
758.95
749.44
739.32
815.98
692.82
558.06
554.50
401.12
574.01
549.82
768.52
686.85
865.88
993.95
734.81
910.76
973.72
808.71
569.68
559.31
779.76
913.85
613.63
778.73
860.47
884.56
1199.79
837.98
755.33
770.67
905.06
1954.16
956.61
1043.97
902.14
672.68
515.60
415.15
484.53
494.12
1058.78
695.64
898.94
3379.04
678.81
793.12
926.09
872.43
1190.96
946.57
873.04
911.55
853.16
496.55
725.37
594.86
1054.70
844.94
651.18
873.63
861.51
930.00
786.10
820.92
1128.80
1099.51
913.05
933.34
1411.04
560.23
524.68
462.58
402.14
426.02
916.12
460.20
928.62
550.76
660.28
682.18
996.56
1016.20
1103.34
1132.24
997.03
804.89
808.23
239.00
595.29
307.01
382.04
549.69
704.48
974.44
723.53
505.19
953.73
832.19
898.92
961.13
921.83
1046.37
477.38
372.32
512.48
1743.70
736.11
891.65
593.78
951.90
869.88
686.62
644.70
730.58
1132.68
1118.01
1152.83
1130.09
1031.01
744.50
734.91
877.58
927.13
368.27
1000.24
600.65
663.52
682.39
717.86
660.33
888.35
868.69
833.16
864.45
790.07
724.80
930.66
792.15
431.17
382.06
595.87
577.50
780.86
767.27
731.58
840.23
990.30
1055.04
792.38
746.03
883.44
806.33
691.56
734.99
605.60
2670.61
1251.59
817.99
908.05
1150.00
1055.81
826.62
905.08
1072.36
1112.66
1079.36
1041.77
1608.93
494.26
409.78
748.80
695.30
862.82
475.54
896.50
629.76
652.17
963.79
1334.74
3175.92
1921.63
1133.84
755.61
1611.33
2386.23
2302.64
1740.40
991.13
457.33
281.14
661.98
1160.87
1340.30
1300.92
1386.87
1152.57
1049.34
751.25
725.30
791.06
953.84
919.67
3127.38
410.53
322.16
334.07
518.39
641.85
865.40
1054.33
681.09
693.78
663.67
757.67
857.09
925.57
946.58
656.19
685.61
627.78
602.21
327.58
675.33
568.77
833.54
865.40
1060.95
2977.65
673.87
750.53
821.05
916.61
980.79
1025.15
1008.51
441.32
479.80
910.30
653.79
611.41
1044.22
899.27
921.20
785.13
687.20
852.91
969.23
946.33
800.42
773.88
741.93
884.57
2883.36
630.03
578.09
562.75
682.59
527.62
611.12
1113.45
804.79
695.75
584.16
749.26
847.78
823.49
674.66
876.25
760.05
706.87
820.60
351.19
711.06
773.41
856.66
609.16
815.26
823.37
817.70
822.09
817.95
760.83
830.55
790.21
943.79
649.86
879.97
1043.19
924.74
986.17
2833.43
768.22
1176.11
924.99
1066.55
619.70
947.01
908.63
847.00
837.02
1065.31
789.67
2751.64
803.38
505.80
514.19
1078.67
892.90
721.08
565.22
840.20
785.66
790.54
718.88
758.97
851.60
799.65
834.11
724.79
838.72
1026.70
705.90
1102.45
515.16
571.29
509.49
692.78
1321.59
635.02
755.51
858.09
895.74
980.99
895.45
878.16
686.03
537.81
608.07
694.36
314.06
705.97
541.14
447.02
640.91
871.30
739.41
803.54
750.39
923.11
876.72
940.79
847.74
2850.31
820.41
856.98
324.48
481.94
568.51
499.32
652.95
864.74
797.06
946.22
879.24
915.54
1331.63
1440.17
1898.11
1691.03
1179.42
638.46
851.76
1429.80
1988.89
1639.75
1363.52
3555.50
698.01
709.08
854.08
1116.88
837.63
836.85
680.63
958.36
568.38
787.92
604.39
2862.94
1266.47
1048.88
889.27
1021.74
874.68
956.79
764.98
799.41
702.59
912.10
692.12
869.80
1085.72
730.82
641.82
499.68
338.12
639.47
582.94
743.99
679.80
863.51
753.48
694.56
1943.23
838.31
870.97
1031.56
1070.61
775.19
646.92
777.95
506.61
619.14
390.30
1065.96
577.93
836.89
723.10
799.18
774.88
814.86
716.63
1070.37
890.79
1009.54
591.38
572.15
542.00
2879.69
564.00
539.18
668.80
896.82
760.11
873.07
498.06
801.65
773.12
796.05
816.34
1023.52
1312.68
613.45
624.08
793.21
749.86
881.56
788.43
989.20
907.49
1010.87
777.17
770.90
2954.97
911.97
798.98
891.62
794.40
804.65
411.02
367.74
432.84
391.64
487.44
467.38
459.00
1441.55
651.55
724.17
696.38
714.20
792.93
908.50
818.99
1019.02
590.88
653.08
804.39
725.36
896.26
673.37
718.69
1075.27
1100.66
1017.79
845.81
1013.67
820.10
1030.79
925.62
741.16
904.67
586.04
1144.00
668.46
932.01
613.27
1058.66
638.42
601.28
712.83
723.53
797.31
1998.11
1034.79
1040.17
1289.99
1191.47
1342.05
1128.45
1175.20
1039.33
751.05
711.84
3219.28
662.47
844.74
957.30
901.89
932.23
745.63
928.43
955.62
890.65
1027.47
572.99
749.93
522.00
766.92
884.81
791.36
873.66
744.87
810.25
846.96
793.22
898.24
894.21
837.12
2890.30
931.53
881.14
1040.31
903.52
893.03
703.57
1117.20
721.00
659.23
868.46
998.20
1118.29
1243.50
1183.20
1049.70
867.85
796.46
888.85
901.00
466.34
549.64
853.49
623.63
2938.36
1033.56
300.88
854.95
715.31
742.77
634.56
753.18
734.76
727.87
733.18
1054.73
873.43
1463.40
1277.64
747.79
693.94
570.47
376.95
709.42
763.04
933.81
654.45
1033.71
872.72
2916.17
760.51
899.63
814.06
501.70
320.62
499.95
627.00
522.56
435.07
654.85
772.87
725.45
784.82
815.67
953.52
920.93
863.59
1006.40
850.95
756.85
385.98
483.47
576.94
457.66
687.90
882.27
720.73
883.67
624.64
820.62
706.17
907.75
783.38
1004.73
837.26
736.32
676.99
2702.99
582.21
1010.04
965.73
1214.59
835.12
603.86
673.34
929.93
693.76
730.06
886.28
1091.27
930.51
1061.76
1050.08
1289.42
1126.98
851.60
653.26
803.74
797.45
728.37
832.49
3225.70
652.79
652.50
924.77
969.22
886.34
1045.66
1072.12
835.10
691.83
997.86
724.96
702.84
739.50
665.15
465.83
901.75
820.79
779.55
841.56
980.60
932.56
983.13
971.64
811.07
1716.47
517.22
611.21
699.09
407.61
469.55
773.91
596.72
812.22
801.19
636.85
960.97
624.01
1199.43
944.54
935.00
778.95
681.67
615.88
522.47
212.09
657.31
703.14
966.63
712.86
2853.74
787.57
893.52
1076.73
998.64
748.53
1044.45
921.40
965.03
842.35
902.28
935.91
777.90
761.29
817.90
420.67
981.86
863.59
898.01
957.66
1260.10
1051.77
1126.41
1113.65
964.64
1076.63
671.19
354.68
471.44
562.30
798.00
661.78
556.55
1125.89
860.42
828.94
886.63
2138.00
941.81
840.91
900.74
882.45
960.24
736.02
872.22
455.29
626.45
319.40
558.10
737.51
1184.52
811.25
676.17
1072.30
904.49
800.07
909.13
937.86
815.11
499.57
682.38
461.40
3031.66
626.77
610.69
869.32
894.33
854.97
926.70
751.59
722.82
818.84
1030.31
1298.43
1248.21
1118.62
595.75
395.51
643.85
548.20
508.08
724.73
541.61
868.25
796.09
782.91
944.16
1019.59
911.99
792.18
1026.07
909.40
469.54
444.44
686.20
889.10
595.18
582.81
579.94
3234.34
757.52
724.56
749.43
770.06
1084.00
943.86
1187.27
1065.02
1095.31
865.34
842.02
1944.75
894.30
743.63
773.92
310.59
897.77
667.11
921.19
727.25
981.24
1001.44
936.33
1171.77
1002.39
745.33
811.99
893.24
634.77
1062.13
746.56
689.21
623.67
1104.11
961.83
693.53
992.38
708.58
986.05
946.28
1243.83
1266.59
1031.17
676.33
475.46
378.48
547.87
782.48
974.86
627.52
900.93
959.32
1001.33
986.08
929.68
786.29
786.73
919.61
732.27
474.36
611.73
910.03
1005.12
574.49
984.77
770.46
948.43
747.22
715.46
820.53
721.59
1046.80
864.14
2261.89
868.40
735.89
1008.76
716.35
731.17
673.53
675.31
575.00
661.19
1060.96
838.69
784.90
1068.78
861.85
1086.25
1068.06
934.12
885.65
647.96
453.38
822.32
616.11
512.04
922.74
1148.20
786.70
826.82
813.31
653.88
820.21
852.50
707.01
823.14
830.98
887.45
723.29
749.69
717.73
547.39
658.66
384.72
578.72
904.85
837.77
871.38
818.53
979.21
982.76
1000.24
2017.18
1070.59
538.73
433.01
438.84
530.52
499.68
750.77
595.02
597.96
706.29
793.83
786.93
1302.79
1223.17
1194.82
953.54
1156.68
1127.20
1336.22
978.23
1099.39
899.59
823.26
1484.75
869.78
820.42
861.08
842.07
745.41
834.12
982.18
930.38
743.09
925.19
987.52
594.94
701.74
422.31
533.71
518.31
479.37
511.58
758.13
714.89
901.60
812.89
1087.03
1028.01
1254.75
1187.33
1168.53
938.21
739.17
312.15
604.37
361.43
694.17
654.55
455.58
838.05
763.68
769.46
846.77
915.17
855.71
844.83
948.20
930.96
531.61
453.95
476.59
404.69
560.04
2438.70
1318.16
1239.73
1819.75
1755.13
1991.92
1868.02
1461.37
935.54
1106.66
1406.01
1460.52
1214.40
995.79
572.37
578.15
1032.63
970.35
871.37
1340.97
1245.23
1286.05
752.08
1099.39
942.75
1239.60
997.55
971.50
602.52
497.51
582.49
686.71
597.27
871.37
875.26
775.70
1032.41
803.43
932.07
1101.89
845.95
789.19
747.29
827.29
821.25
554.69
510.11
2747.65
725.86
876.08
674.79
946.55
1025.35
1102.81
917.02
923.33
1154.18
1124.65
725.07
987.14
995.13
858.92
678.26
433.78
227.07
477.92
645.48
769.34
543.74
717.04
626.07
680.46
2052.51
953.72
975.83
1012.39
989.58
1454.92
1652.89
1652.57
675.40
674.54
977.50
1213.99
1601.87
670.35
855.52
813.71
599.20
908.55
1044.23
1366.35
1321.90
1448.85
1016.23
600.57
779.72
942.22
812.63
989.21
772.16
586.78
657.06
824.19
1028.06
925.94
920.85
875.27
1889.05
993.59
892.31
946.87
516.72
469.29
582.06
742.37
418.61
443.80
542.93
861.35
812.88
1051.93
777.06
964.78
836.83
1185.75
996.49
1161.41
1386.36
1378.47
1002.02
1424.04
2770.75
1157.06
827.13
547.62
1019.84
1086.45
930.87
823.58
834.77
773.03
835.19
1000.03
1929.04
1802.82
2260.24
1990.47
957.38
920.47
915.88
492.08
630.78
669.86
956.91
1177.00
2053.78
945.76
939.08
1007.13
968.64
932.32
477.44
933.63
1389.13
1577.93
1411.62
503.95
1403.56
811.10
1003.05
1338.96
1556.22
1834.57
1400.25
1366.85
921.05
964.57
718.51
565.87
730.03
786.78
662.79
1088.63
708.11
726.42
767.80
1021.10
749.28
823.79
885.51
1149.31
1525.66
819.36
1098.52
878.97
1185.33
2990.38
3421.16
2600.84
1024.40
1186.10
2721.63
4150.85
2870.65
2459.02
1349.12
735.18
855.72
978.13
997.52
942.55
381.78
565.53
364.51
590.93
565.04
953.22
839.75
1095.02
1360.57
1238.93
843.99
925.66
853.50
803.60
878.80
1279.54
755.03
822.01
1045.48
676.64
798.39
627.74
834.13
593.01
1078.36
857.37
726.88
2934.29
1328.94
1430.03
1294.98
1518.25
1442.40
1583.24
1175.69
1466.69
1783.38
1487.20
2704.84
959.44
950.35
854.82
941.05
686.72
691.16
893.85
846.36
984.51
1005.58
1115.36
2891.99
880.15
757.24
438.10
695.06
616.18
544.92
1057.09
962.24
872.51
714.05
927.30
940.00
1181.58
930.59
891.63
635.33
537.80
325.51
559.10
351.79
807.38
641.97
679.67
859.15
2612.02
1042.15
1061.53
1248.02
1492.49
1723.08
2197.25
1998.56
1427.74
401.40
1225.23
1458.99
1136.90
1203.03
799.94
640.92
842.86
625.34
688.36
799.12
805.41
814.13
1051.91
1080.66
1078.54
444.16
452.95
710.80
749.06
539.24
746.46
821.91
868.40
1054.24
1591.52
1352.34
2040.00
1711.12
1090.24
1108.27
1503.47
2011.87
1456.10
1024.19
672.65
421.56
663.42
721.07
611.12
762.70
674.90
734.69
867.56
820.02
1071.30
954.79
1158.63
848.56
883.51
1364.37
1932.81
2385.52
1967.03
1458.49
900.12
963.82
1016.18
940.34
785.34
821.16
824.15
915.55
905.21
858.47
1014.54
811.56
1277.72
1306.02
913.02
784.87
729.89
627.16
885.12
2076.34
959.07
953.18
895.28
787.88
868.56
979.90
1500.39
1477.73
1244.47
620.89
527.16
1804.68
904.40
845.01
648.11
1271.88
1283.51
1293.02
995.16
917.98
878.28
980.87
1140.31
2382.39
2561.76
1987.91
878.89
1261.14
2520.88
2624.91
2379.72
2007.90
1083.05
791.45
3173.32
891.17
974.28
1000.12
935.99
985.19
1005.72
654.77
888.97
676.83
886.27
944.38
2507.93
802.14
1101.10
897.46
1200.43
845.02
918.10
909.66
930.94
1121.38
1122.31
740.19
3232.14
146.64
590.32
376.31
401.41
604.31
545.57
887.19
1136.37
969.29
951.45
843.33
707.25
1116.87
1408.52
1371.42
1154.87
485.53
439.32
821.97
518.87
905.23
753.18
779.30
784.45
729.21
541.97
662.54
916.19
825.01
916.74
897.17
796.14
504.06
750.01
619.77
516.44
2084.55
587.83
507.48
644.47
768.39
824.06
609.77
1061.32
913.96
1011.60
899.42
917.35
684.92
1305.60
425.20
791.15
917.73
804.65
940.94
994.02
954.26
958.14
846.66
774.13
943.11
1001.53
959.33
988.99
956.29
843.50
512.84
911.80
629.51
933.85
461.51
556.27
616.05
919.21
2719.77
731.54
693.10
857.72
771.43
969.79
995.58
1080.26
826.85
1069.30
892.05
812.72
721.63
927.92
714.15
933.16
881.30
811.31
663.23
810.94
743.61
889.38
766.53
1156.89
977.85
3034.65
377.20
417.62
691.45
571.68
618.27
847.84
1299.06
1647.10
1659.75
1425.95
1179.31
3062.21
1472.04
1125.20
853.80
1606.52
2650.17
2707.27
1930.51
778.12
363.14
473.66
1937.54
699.37
927.82
843.20
863.77
856.78
948.89
870.34
1037.17
867.41
838.81
1530.47
1549.14
1755.62
907.75
457.41
1064.70
1472.92
1669.27
1128.99
926.84
685.95
840.95
990.57
1790.61
1230.36
1031.35
976.71
554.94
540.79
344.53
592.88
402.69
805.71
915.60
1091.89
2420.07
825.11
929.05
962.29
780.50
1018.83
1145.03
572.98
649.80
463.64
349.60
466.92
558.05
867.41
877.13
1040.54
813.37
948.50
848.97
830.57
832.81
891.55
710.22
1077.68
501.26
3104.85
450.30
880.04
882.54
829.03
855.35
1215.69
1159.68
1173.33
880.48
931.12
930.34
1495.07
1011.22
869.24
690.75
474.14
508.14
555.69
410.35
552.96
703.12
652.10
858.05
2561.72
814.96
998.82
1182.56
1054.43
901.96
879.26
875.07
508.21
789.58
553.11
525.64
2279.54
715.98
1032.96
593.30
867.00
836.63
662.76
774.89
832.19
725.84
902.42
901.13
946.45
1162.81
580.50
643.31
568.94
611.10
842.40
706.37
783.24
585.22
760.42
781.99
936.58
815.37
1116.50
887.00
1026.30
700.75
879.61
303.36
719.63
501.61
682.98
877.49
1049.07
1176.82
1418.29
855.62
717.97
840.77
862.61
805.47
866.75
1025.75
516.37
377.29
500.01
764.59
2224.97
758.08
469.13
544.35
711.29
721.42
702.63
648.05
941.01
845.83
945.80
913.41
943.31
1025.95
998.83
447.94
631.54
712.18
869.42
794.77
819.92
795.22
1008.78
628.52
951.85
818.57
920.80
832.44
945.54
643.82
564.13
784.47
374.90
411.34
843.96
859.51
914.30
755.92
2368.87
599.26
839.61
894.21
1153.18
1058.07
870.56
911.31
846.08
612.33
722.31
332.49
506.77
385.90
724.75
365.81
880.26
814.42
707.75
916.10
864.56
966.53
960.78
939.33
940.22
2033.72
386.74
844.28
592.00
599.81
670.64
499.65
970.85
775.86
723.98
707.86
757.14
883.19
1467.20
716.33
1001.72
776.51
729.29
804.13
592.84
356.22
663.65
770.65
591.16
714.87
866.10
830.37
714.12
841.36
804.31
697.42
843.95
685.45
763.78
729.42
692.53
656.94
717.11
2219.59
964.77
357.94
830.54
690.42
779.35
873.62
1048.45
1234.94
1385.70
1173.32
1029.79
3262.22
446.91
402.92
551.42
801.15
840.18
555.97
741.35
750.11
762.87
458.72
767.48
874.84
983.83
1029.14
1244.77
1127.46
634.31
701.36
1225.95
1469.30
1338.98
1239.48
543.75
1876.73
975.51
1211.08
1268.87
1042.43
943.28
820.60
859.99
833.92
737.52
909.10
725.20
1372.29
597.85
779.22
452.77
404.59
806.36
986.88
1013.98
967.81
1293.17
1029.26
939.61
2649.26
892.64
455.66
667.48
580.79
596.29
1122.23
1031.18
598.94
931.51
721.08
885.24
2212.38
966.28
860.20
860.67
816.44
745.37
871.93
624.54
770.52
915.94
811.76
871.06
1047.43
1387.47
1186.37
1250.19
939.44
973.15
886.29
940.25
807.62
928.23
932.57
567.64
493.12
1082.30
402.84
379.11
323.05
1078.61
523.31
920.37
995.32
674.52
722.54
838.04
850.85
2307.73
1014.46
926.27
797.17
751.18
529.68
767.56
935.93
831.85
848.69
958.68
970.95
948.03
967.36
991.28
880.54
899.72
949.70
980.22
909.38
438.84
253.75
553.05
501.03
710.43
775.65
806.83
830.32
841.68
770.92
862.58
939.73
945.92
930.71
882.36
777.73
610.85
459.58
1832.02
575.01
961.12
369.24
918.35
628.93
1078.94
1076.21
1217.83
1405.45
1533.64
919.19
3369.95
1175.65
1051.64
605.26
740.36
652.70
521.41
711.63
768.75
604.95
839.43
894.29
3630.78
709.14
786.00
805.81
822.79
868.88
882.26
665.33
760.52
678.94
1087.64
1036.74
887.23
631.10
803.33
1019.53
1041.36
952.21
842.34
831.21
762.99
864.81
806.38
1052.95
513.26
1151.11
401.68
577.34
638.74
459.63
1020.55
888.59
1078.28
1088.22
1251.05
1215.99
1259.27
1425.41
1144.22
828.26
974.98
463.31
418.28
457.61
686.38
689.34
693.66
524.18
876.09
1521.29
903.50
695.51
740.16
802.18
871.27
790.99
868.19
727.74
493.79
363.22
518.85
837.11
557.10
363.06
553.68
795.03
822.04
825.24
621.07
738.59
705.57
757.42
752.27
794.84
1973.51
963.73
844.00
926.24
957.18
802.60
1046.18
1035.00
1224.51
1160.86
1010.06
1001.88
2301.03
835.48
992.96
796.10
994.23
559.22
618.02
392.64
403.38
563.89
546.57
580.56
695.68
878.64
752.31
562.35
721.75
634.83
845.92
973.49
1086.58
890.10
843.38
716.08
669.81
1742.67
515.30
556.99
719.53
1221.70
1315.96
1308.49
1475.68
1081.18
971.93
809.02
803.14
1383.67
699.59
745.24
1117.87
713.74
894.96
440.21
684.21
343.98
828.44
898.27
750.89
2177.71
862.57
782.34
782.69
880.17
918.46
423.37
552.68
348.03
612.09
767.81
1089.12
1017.52
1331.62
763.26
942.02
525.55
836.99
909.36
996.57
857.18
914.73
1057.02
990.77
1244.09
3015.51
808.62
802.05
721.81
689.31
857.12
904.84
885.04
1026.47
802.76
869.43
949.79
2157.24
1214.51
1369.22
995.10
810.29
528.04
799.27
423.82
659.61
702.15
677.96
651.21
710.77
586.33
875.89
759.33
827.50
825.13
807.59
604.72
631.11
536.25
830.79
770.37
911.41
1682.82
811.51
618.82
857.31
694.88
800.22
734.36
916.38
961.50
892.91
815.61
473.50
465.83
1331.57
559.48
605.15
427.38
486.58
800.20
845.66
654.59
676.29
846.10
694.73
711.74
923.13
815.83
925.71
810.43
515.06
701.77
1110.35
1216.47
1466.56
1673.63
2275.98
2227.78
1876.49
1605.73
1479.94
877.43
801.39
706.71
866.00
491.08
676.62
603.84
553.98
723.00
2112.11
1186.83
1004.76
1070.88
773.01
759.75
1245.93
1769.27
1980.36
1794.15
1644.35
1223.88
858.99
826.51
780.66
375.65
705.82
659.09
808.38
783.85
785.18
675.71
738.61
637.48
3164.50
881.88
965.69
932.52
989.55
731.43
460.94
725.84
485.06
449.20
929.32
494.91
1124.65
1336.28
1247.24
1324.21
1396.51
1005.74
809.78
953.27
1048.47
840.42
718.82
973.87
1971.30
542.48
732.31
1039.45
837.11
717.65
705.98
569.23
853.67
956.19
992.07
974.86
1025.70
1414.20
789.13
627.47
1195.76
1059.08
734.39
544.63
512.86
712.89
852.96
698.02
694.60
1432.90
961.73
800.70
936.42
993.60
599.51
584.28
967.19
828.81
888.42
615.47
777.13
580.32
816.89
864.83
766.13
911.03
1341.78
1304.78
1223.44
941.59
974.29
432.65
710.34
989.76
1075.74
1185.34
536.47
455.28
546.25
731.37
820.56
579.32
843.47
907.78
913.74
980.04
4134.80
911.40
711.75
809.19
736.90
616.19
633.52
406.70
764.95
614.14
694.06
671.19
952.77
1185.40
1152.64
1083.42
1195.16
1010.34
1075.52
1027.11
1272.93
825.06
1032.49
941.43
2118.15
798.54
1152.64
1206.07
778.52
899.81
1155.07
859.16
748.00
790.61
920.33
561.23
2328.64
1468.24
1782.89
1435.09
435.73
610.62
1069.76
1051.46
1073.41
648.89
673.89
724.37
934.72
785.24
1189.10
1008.03
1038.57
830.88
1007.69
634.88
717.46
780.34
780.44
525.97
1442.28
839.80
683.87
712.96
876.84
640.50
864.71
848.57
955.24
635.09
940.63
673.72
598.48
320.18
686.84
444.85
823.53
716.48
674.33
738.87
1038.73
910.40
931.28
742.83
1050.64
1985.80
787.84
200.89
599.94
484.91
665.86
778.59
616.36
703.79
792.88
668.30
837.59
1006.67
1257.90
1012.66
1064.57
924.59
491.74
465.46
625.51
832.22
485.13
449.78
595.66
1271.32
1699.80
1395.23
1492.52
942.64
1193.70
1392.10
1113.95
974.83
643.02
468.71
482.49
1982.54
833.20
617.46
682.86
621.39
732.02
855.82
815.35
697.80
976.60
887.38
996.18
814.20
1343.92
842.41
795.34
724.38
521.56
304.93
702.04
786.88
770.64
853.40
908.22
727.46
2067.72
920.36
967.38
889.49
949.12
913.04
819.37
580.88
651.87
500.61
657.13
346.27
669.33
1147.84
822.38
685.26
866.53
801.95
908.27
789.66
861.50
855.31
828.23
838.58
1103.03
714.20
509.07
793.53
1433.65
1476.91
1690.21
1348.39
1278.24
769.86
835.56
803.19
871.63
1982.65
1615.72
1295.38
1616.71
745.56
1070.43
826.70
1246.45
762.57
754.00
993.12
838.85
686.52
745.66
803.68
761.49
943.18
780.91
1077.48
821.24
694.73
393.21
441.74
624.47
3496.37
799.40
827.80
870.40
745.60
759.62
834.71
921.29
930.37
1061.75
842.28
1051.31
866.35
1075.37
437.45
510.81
634.35
1136.57
628.68
961.93
892.02
1005.75
740.27
854.03
827.55
1513.02
964.16
918.67
869.20
413.37
441.49
563.72
452.11
589.04
463.07
428.08
673.23
764.24
794.72
799.40
1125.54
1416.05
1245.48
1514.19
1414.64
1293.40
1134.48
1314.16
1284.96
1790.79
955.12
1154.12
696.93
849.87
795.31
685.23
856.72
821.39
718.72
892.41
874.99
1442.11
512.78
751.63
801.07
460.07
832.73
842.66
878.93
787.19
807.61
767.35
677.41
892.36
849.04
1070.93
894.13
978.96
712.84
708.01
987.06
1420.27
1144.04
1181.42
900.70
962.20
1051.40
980.20
846.10
969.19
902.97
951.58
705.75
840.29
837.37
557.04
595.05
512.98
1693.79
597.84
488.12
716.44
691.79
775.68
796.14
786.34
840.30
1012.51
758.89
884.94
943.16
1047.52
529.27
936.20
786.46
933.31
331.03
833.35
584.61
947.18
777.74
1179.26
796.46
1463.64
1042.96
878.80
859.95
966.40
565.44
531.03
455.21
850.23
747.83
850.34
1168.75
2312.86
809.75
873.57
630.33
766.35
850.28
1184.68
1417.06
1527.82
1649.11
1533.09
1017.07
1565.01
1121.22
974.80
803.99
630.71
1117.49
860.69
843.41
581.91
757.52
954.07
828.93
1007.06
1033.33
713.00
311.30
567.24
833.79
1033.77
500.62
651.92
500.69
800.60
578.87
3417.78
693.95
1089.15
807.06
1055.78
930.45
986.66
755.69
647.61
566.67
796.72
752.17
601.63
619.62
586.26
878.17
1149.60
898.92
925.24
952.19
1033.43
781.68
989.69
840.59
696.04
868.10
727.90
469.98
870.64
842.30
994.57
744.86
719.75
925.62
911.48
918.99
771.59
963.10
926.22
828.34
967.85
693.53
960.14
709.65
950.19
806.03
683.94
653.65
852.97
790.28
1502.81
645.10
820.08
682.55
774.23
1019.73
921.14
775.09
519.80
374.46
631.43
565.59
836.98
790.58
939.93
783.06
670.02
639.00
741.13
879.99
798.08
794.76
1080.49
886.19
794.08
390.90
1042.69
688.28
911.40
950.56
811.62
1083.95
982.74
1079.43
999.90
930.91
819.27
733.25
879.52
1058.87
899.37
425.58
476.70
220.30
631.67
662.18
518.27
708.41
818.83
689.83
3550.36
902.09
871.56
1152.70
1127.00
967.68
1244.49
737.42
709.93
704.64
661.88
741.82
3429.27
883.33
717.55
1055.52
940.70
751.75
1011.15
920.84
1081.38
929.00
823.46
791.17
1342.61
506.14
543.71
947.84
770.00
974.83
645.02
860.46
854.19
931.50
645.24
749.73
961.21
1438.74
1058.94
865.40
953.64
731.92
1155.45
1451.97
1199.09
766.95
680.02
604.17
650.00
1466.01
1011.27
698.88
1094.34
838.30
885.67
886.87
996.38
825.98
679.40
713.87
945.37
748.19
861.34
667.96
558.20
747.12
731.62
552.24
660.90
653.39
806.67
797.99
976.95
775.53
1337.80
651.28
792.46
647.80
972.11
885.30
895.04
747.65
1237.61
1084.69
951.72
830.31
787.67
1024.03
938.31
1186.48
975.55
929.35
824.32
420.27
648.64
451.18
847.11
452.42
985.37
899.14
830.97
797.16
807.49
844.28
900.44
879.86
817.44
747.48
894.34
1001.75
1160.64
1486.61
743.06
909.87
862.53
1051.88
1134.88
831.69
992.90
828.16
840.40
926.68
1113.39
3856.37
615.88
468.83
765.08
447.67
682.00
573.73
870.43
853.72
772.71
809.93
778.04
796.61
1255.85
911.47
1018.33
966.22
680.81
457.64
593.25
340.28
595.67
1171.40
804.11
670.26
1579.94
876.39
897.92
792.97
943.72
871.08
803.95
812.53
1049.97
511.01
497.94
391.86
3396.15
561.74
1102.66
946.20
856.92
741.75
944.37
821.52
1001.26
1088.06
1016.46
731.77
3566.37
875.69
650.01
290.95
421.79
646.85
479.59
351.41
472.07
851.02
1106.78
805.38
768.60
782.97
811.80
799.22
771.63
890.87
876.65
605.87
764.71
539.43
854.67
844.92
661.21
3377.45
709.36
597.96
889.92
773.30
784.34
757.18
1035.90
891.57
968.32
551.10
794.23
1144.50
1260.29
812.20
1198.41
1324.19
1483.76
1189.90
1224.86
806.69
690.11
813.36
866.38
2101.93
1027.14
893.17
946.75
544.06
936.94
862.99
1080.10
614.68
838.16
797.24
993.87
993.92
654.37
924.14
975.77
809.59
803.45
891.27
811.77
395.25
715.95
1366.66
863.92
639.19
3343.84
741.12
1238.21
1045.66
1355.30
1135.90
1735.48
1696.31
1645.51
1405.17
1385.33
823.31
571.43
587.84
1143.35
1634.98
1222.73
887.47
554.76
900.16
768.43
858.60
984.54
3208.29
932.48
719.52
854.11
833.20
756.01
363.68
808.35
733.28
1115.42
789.92
943.18
995.73
1262.27
1161.28
1153.30
1045.93
963.67
1021.51
1008.02
860.76
1178.75
642.23
829.79
3155.75
1062.27
436.31
483.25
578.83
547.26
769.83
947.90
797.85
860.13
691.02
834.27
690.06
1489.65
529.20
777.97
231.25
570.26
409.20
687.98
785.77
826.04
1245.06
1176.16
657.84
3550.38
842.71
811.63
868.09
823.63
890.59
804.18
929.09
809.45
576.02
636.68
558.35
994.38
1009.69
1189.46
717.38
714.75
754.68
921.32
929.00
912.51
741.00
795.06
567.56
614.89
3200.63
649.06
502.38
685.39
534.31
983.25
878.31
1038.24
728.02
1168.31
954.31
1131.00
865.61
1121.60
731.63
812.77
699.03
812.72
393.86
659.74
796.65
772.72
727.35
676.72
880.97
3165.33
1417.32
1409.84
1068.07
827.87
812.69
527.35
742.03
665.14
547.20
528.09
809.41
3280.06
907.47
1225.81
1243.37
1489.35
1264.50
1195.58
859.14
1029.94
1015.08
1122.35
815.34
585.06
641.90
516.12
510.84
931.84
673.84
660.35
898.09
858.84
566.61
1068.15
810.90
3220.47
919.03
1221.27
722.01
736.67
816.90
1042.92
1004.63
983.36
526.06
934.62
1093.41
1081.54
820.62
1108.46
939.89
1261.72
890.37
1213.48
918.68
859.13
279.93
618.66
884.02
3550.84
688.03
788.93
673.51
842.70
715.50
637.04
707.68
961.47
676.51
1138.72
938.94
954.41
818.81
626.21
436.54
836.94
561.01
687.48
527.57
594.68
857.31
756.54
529.66
825.59
930.97
1200.94
1011.94
1038.95
744.14
632.70
223.39
463.77
680.53
691.20
732.26
624.71
738.27
1446.57
693.26
787.30
693.60
751.92
710.51
836.16
787.43
1313.53
1329.48
1769.76
1353.49
1558.20
1153.38
1068.34
913.17
1312.19
903.70
583.14
788.00
901.21
864.60
866.63
863.50
1245.77
523.24
393.88
601.70
533.40
617.48
659.22
841.25
685.96
966.24
847.08
806.24
3018.50
1355.20
1467.07
1467.87
1083.42
685.05
574.75
717.57
575.38
459.06
728.37
834.10
3076.88
1219.47
1136.99
905.53
965.15
925.34
881.83
916.94
995.51
860.82
787.94
431.03
3245.91
357.05
350.38
610.54
942.86
459.61
760.27
645.65
776.53
946.85
911.03
937.56
1049.62
1468.24
1372.43
1192.79
1258.45
1180.23
767.40
682.93
908.64
463.36
719.87
896.00
776.68
700.74
879.12
880.68
770.93
863.87
716.68
660.44
716.72
670.60
384.09
434.02
610.99
2775.42
734.22
956.94
760.13
560.93
966.09
675.05
1000.68
852.36
866.56
788.49
938.65
738.67
1498.83
1182.74
1009.26
900.20
848.20
935.01
1287.04
952.67
864.03
606.09
891.46
900.89
3488.83
995.99
1073.37
486.18
503.67
621.25
588.86
435.55
713.12
397.25
919.54
877.35
872.64
1042.08
1071.62
839.68
1167.91
993.20
1213.80
822.91
867.32
447.01
595.46
359.03
687.22
994.46
414.38
856.17
871.93
780.80
863.58
828.43
904.88
939.67
1104.38
949.06
525.31
1973.55
398.73
584.39
694.02
696.90
705.26
756.47
891.64
903.99
1072.22
925.55
1204.02
936.81
1138.11
1263.09
1104.53
688.15
605.09
694.64
773.17
660.47
565.23
489.22
1100.25
684.02
1164.65
497.13
863.36
784.86
846.04
795.51
811.13
599.23
627.46
387.28
642.50
365.26
1047.90
753.53
663.82
847.63
904.00
934.40
768.16
757.86
885.12
792.62
867.41
834.03
738.43
626.99
441.79
335.23
699.68
834.46
1004.85
546.38
1456.23
1265.34
1024.10
1156.76
1179.00
1143.74
786.81
921.75
1078.39
528.00
551.05
313.91
579.78
443.85
573.34
503.73
715.99
937.24
698.20
612.50
1011.93
877.89
832.73
932.60
862.19
916.98
520.13
758.32
725.05
618.65
1025.34
992.81
939.11
933.14
873.51
816.60
652.84
672.56
829.05
804.63
1037.31
841.34
3028.92
748.14
587.74
440.12
493.34
533.04
664.57
525.83
871.26
790.13
678.87
662.73
984.55
1141.13
1066.74
942.89
1155.28
1048.34
848.30
860.39
951.64
802.55
870.68
780.38
1041.74
1046.33
925.54
672.38
874.70
795.21
1066.42
1128.90
1059.09
782.49
462.93
469.70
494.71
727.45
566.66
527.79
682.53
849.54
890.38
752.56
1155.62
1155.47
1378.41
1235.58
1039.32
1300.13
552.87
551.45
666.19
269.59
693.61
349.76
558.06
680.25
1083.66
778.00
829.15
1365.66
1171.87
1161.26
1263.88
925.56
908.26
491.15
427.95
489.37
494.06
378.89
884.66
1214.30
833.75
595.73
839.51
625.50
762.58
702.23
1032.17
1096.83
947.41
733.46
748.36
2887.67
779.15
802.10
1004.82
891.94
818.50
1046.89
902.09
688.89
614.58
826.35
735.91
924.29
1120.21
919.53
504.13
381.60
694.43
575.15
716.06
447.28
1012.58
549.67
974.24
712.93
2972.93
905.51
1053.28
813.15
962.93
806.21
906.90
914.26
823.78
507.75
541.66
833.15
618.82
768.45
1188.97
843.96
1166.92
746.54
837.57
926.04
1186.69
1091.86
1350.57
851.83
633.21
705.15
540.22
815.34
1062.60
959.57
763.64
765.98
712.81
723.97
856.26
889.38
880.57
2628.45
1241.10
1132.17
1210.54
859.91
978.22
439.85
593.79
544.47
948.24
426.31
950.39
2902.70
784.30
618.97
833.71
983.58
1233.36
1301.62
1709.80
1204.09
828.44
458.90
602.45
2151.10
666.78
789.98
642.31
657.58
791.68
807.19
864.86
782.96
903.02
811.42
1002.28
720.29
644.41
570.04
766.51
904.30
928.52
586.86
697.16
748.07
657.47
697.34
844.56
844.65
2989.47
862.92
857.21
853.72
675.47
348.48
612.68
447.12
429.11
390.09
598.37
345.18
817.58
1170.58
768.61
712.79
1049.80
934.08
1146.30
1038.71
879.07
675.70
653.05
344.78
723.17
1730.83
1098.76
790.88
1270.31
961.15
1013.57
524.05
900.64
798.29
723.86
730.62
1066.88
3028.30
650.83
721.46
446.98
436.75
511.68
669.47
464.43
746.63
651.43
752.44
805.64
923.38
1386.18
941.23
885.90
946.17
897.75
695.28
616.22
745.49
784.03
553.39
969.79
705.36
2869.59
1016.03
955.51
932.34
1330.84
941.22
1077.20
822.09
991.37
522.55
535.54
650.58
2819.15
359.08
781.13
423.40
746.93
720.76
863.93
754.49
697.61
738.22
949.01
718.82
1053.22
1249.89
683.78
596.81
775.89
667.60
704.85
589.40
778.03
828.76
1025.30
756.49
873.76
2889.98
993.60
915.92
1004.41
853.79
544.14
646.72
506.76
220.48
388.36
544.65
796.24
418.85
1467.16
731.45
697.24
781.08
755.16
768.98
819.94
851.95
943.23
488.72
656.62
529.86
739.59
1073.19
845.46
732.55
1171.41
709.41
1067.30
824.88
1166.25
1009.68
942.16
990.08
925.71
844.16
552.39
709.81
830.19
1017.12
595.88
803.28
455.45
948.88
801.96
764.22
802.46
2659.15
946.22
854.81
885.70
979.89
769.18
781.06
561.42
854.07
773.01
970.87
877.99
701.72
1518.20
970.66
806.76
852.51
824.69
950.19
998.93
866.07
1046.41
847.41
781.87
900.87
654.80
860.71
899.80
603.22
1060.22
671.06
734.97
631.98
787.63
778.88
876.35
760.52
861.43
2770.68
748.28
511.57
725.07
551.14
965.49
893.36
844.33
1196.47
1085.71
696.52
853.33
856.45
1004.53
739.02
916.84
859.98
562.61
396.90
602.66
391.79
607.51
573.90
765.24
654.39
2792.29
824.47
813.24
901.13
1136.62
865.55
752.70
837.88
866.54
501.97
517.73
472.33
547.40
788.81
577.51
920.17
988.51
749.40
992.86
665.46
862.75
705.77
933.17
961.58
1042.38
2847.91
656.58
659.02
789.99
531.83
753.36
434.22
647.67
874.65
980.89
902.70
847.14
754.99
1022.86
944.82
834.33
804.22
647.90
365.44
546.71
532.68
809.67
605.83
926.46
848.74
2742.59
1233.09
1199.11
1021.92
1104.67
784.70
991.77
845.05
845.09
784.76
398.32
169.85
1108.62
417.01
670.46
469.04
660.07
665.38
734.03
721.59
944.27
857.16
886.81
872.14
1012.57
1039.38
930.72
673.90
765.44
386.15
756.17
775.16
838.95
1036.59
952.87
834.56
845.45
2643.54
1019.95
804.14
1092.90
1081.52
783.29
595.43
693.32
533.69
565.80
408.72
820.63
477.23
903.92
781.69
814.17
843.68
929.51
834.35
938.29
998.36
1031.31
815.07
932.17
802.44
2765.02
662.82
470.95
757.71
629.33
816.95
908.95
674.78
968.22
849.98
920.36
923.27
996.88
1046.40
601.70
253.13
446.21
412.48
537.52
312.91
618.72
704.92
817.15
699.43
737.06
814.64
1177.82
865.77
961.38
897.56
865.57
491.33
813.08
710.37
873.83
547.61
892.78
830.43
2847.85
1068.00
829.54
821.30
782.37
889.20
973.87
799.08
735.73
421.12
515.00
610.28
915.41
820.90
666.34
807.11
731.81
822.57
790.37
807.40
764.05
817.83
818.83
687.53
718.64
827.58
992.31
786.40
875.51
980.82
634.58
563.22
749.38
1115.91
996.23
936.66
773.12
863.44
2717.13
974.97
950.78
835.95
758.54
452.08
466.36
556.07
457.29
652.95
648.36
421.38
845.22
1007.53
847.28
764.06
874.49
892.99
1006.96
803.44
834.38
764.42
1016.44
430.51
730.27
2419.97
747.19
883.26
809.16
857.17
941.81
713.64
955.52
838.79
932.83
1095.66
1153.70
998.20
866.09
676.86
1015.58
516.52
868.34
897.15
614.28
832.13
812.94
866.79
838.55
859.47
2834.30
912.08
943.31
971.35
699.21
537.18
806.13
886.02
737.28
439.54
820.50
550.35
996.49
1223.95
990.12
786.78
777.70
724.63
918.64
861.25
991.54
501.66
787.73
485.47
621.52
548.49
957.57
506.61
650.64
725.51
872.76
681.26
836.11
729.59
974.67
853.45
851.33
668.33
2557.46
816.00
889.56
865.87
1046.52
944.72
1271.15
1294.44
1312.57
800.43
774.17
780.84
2895.54
871.70
849.86
889.27
585.95
394.99
459.04
587.05
510.51
474.97
599.93
428.67
761.82
831.82
835.78
712.81
1063.31
929.43
1025.00
718.16
1053.01
676.84
829.74
787.43
799.79
1280.55
735.80
649.24
975.91
952.01
1020.54
794.40
1047.68
1070.62
1125.25
920.87
944.61
1064.78
777.90
576.98
492.58
374.93
878.39
1019.49
751.29
1019.06
757.47
690.89
844.47
1830.83
757.19
776.22
878.91
869.35
659.07
779.33
633.02
443.76
792.08
934.23
786.16
594.16
1230.22
892.85
865.92
796.18
1098.48
823.29
925.27
827.46
1001.02
675.73
541.07
486.40
2627.22
462.19
705.35
589.05
562.34
772.85
876.38
654.42
831.78
923.90
781.46
787.68
940.87
1058.67
833.14
403.85
989.29
790.43
1020.62
727.68
774.43
857.07
767.23
661.37
667.25
2635.59
777.59
749.37
1021.01
960.62
890.50
514.82
782.29
909.64
814.71
547.91
1027.77
474.42
1536.41
643.98
768.22
783.36
1029.68
863.61
818.52
815.54
1092.84
685.68
725.00
762.73
2639.80
756.57
1098.03
661.58
733.77
676.09
953.97
595.22
819.01
892.54
1056.64
891.48
926.93
908.98
613.64
524.99
758.30
755.06
986.32
857.48
732.59
779.37
800.70
809.88
620.93
803.89
909.15
698.31
997.58
815.03
630.72
494.54
840.77
677.66
837.87
949.32
1126.45
1172.85
2766.48
1196.89
900.10
805.19
954.78
1017.14
900.39
916.11
1065.30
638.27
652.78
828.62
2891.36
611.16
529.15
722.91
598.43
910.25
868.54
1105.29
1412.72
926.29
1088.90
1126.93
2685.27
929.24
880.03
382.38
560.77
408.25
571.00
392.78
762.46
725.05
889.38
936.62
760.13
904.15
948.90
961.19
759.44
929.20
699.35
427.53
774.96
324.16
733.18
503.87
846.52
2199.52
839.07
870.25
742.81
515.07
970.79
833.64
912.66
803.69
965.76
740.76
657.26
753.68
1442.78
731.54
687.21
749.67
926.56
781.50
1117.82
741.73
818.91
914.21
825.57
898.30
2668.23
897.52
726.12
470.72
727.57
348.79
655.70
654.52
600.86
591.26
706.19
801.51
789.18
1264.04
845.36
715.50
940.65
701.28
861.04
575.13
708.92
342.04
890.47
741.59
785.43
692.28
936.83
794.92
875.67
792.38
1070.57
985.37
883.00
709.46
1008.41
847.53
645.93
526.85
1604.62
644.94
656.47
700.98
565.89
827.64
805.27
785.56
1103.13
1053.39
1085.52
721.00
2559.05
914.22
615.33
576.54
746.02
639.45
789.85
541.34
780.01
969.03
1037.07
1035.25
804.15
855.32
1065.05
910.01
849.29
910.85
731.96
343.82
613.48
673.39
500.68
379.90
643.32
1622.60
828.46
789.74
1106.52
853.89
1063.83
1016.67
1256.51
1081.21
1258.86
587.59
842.49
729.84
853.37
719.61
942.36
495.81
951.04
1176.77
1220.00
723.73
829.11
878.71
854.32
1692.85
869.76
960.98
856.54
987.95
857.43
957.12
757.73
724.83
597.94
841.00
861.30
689.56
982.68
902.60
1041.15
919.87
976.11
927.11
1072.20
694.38
666.97
637.61
739.54
461.57
1816.80
647.38
989.74
841.34
781.01
720.44
958.70
872.80
969.59
851.55
771.81
409.94
502.16
357.25
923.51
550.81
736.21
841.74
644.77
534.90
875.08
659.95
813.34
860.82
939.72
2428.35
925.09
848.84
1107.01
769.89
1058.59
827.10
783.79
660.63
792.51
992.69
1042.65
919.18
959.10
887.19
893.09
867.50
866.14
935.55
634.63
327.64
524.90
614.84
537.79
536.69
2280.06
497.36
807.86
871.09
808.86
784.56
892.55
757.02
947.56
904.52
1121.64
632.32
840.97
997.84
707.77
696.16
924.57
864.58
967.51
1109.05
1360.53
774.80
947.37
906.73
843.19
2524.73
989.12
1045.50
709.73
476.72
518.66
316.03
821.80
512.03
634.85
709.75
929.69
714.69
1150.47
834.56
1005.98
799.83
1074.58
948.16
1024.77
678.24
759.17
575.38
701.28
860.98
2392.78
707.94
982.54
1025.01
1098.35
780.90
1042.62
914.41
790.83
774.61
844.43
354.68
694.17
863.09
443.64
403.20
556.92
420.23
465.31
833.64
850.52
646.72
825.10
805.80
1057.55
2374.76
881.11
906.98
911.95
697.54
869.40
685.64
797.11
687.84
745.58
770.40
873.95
793.46
895.29
766.50
934.46
839.85
933.37
820.35
661.65
496.59
578.78
305.86
712.53
511.03
744.39
708.38
750.99
772.10
799.24
801.58
1016.07
710.73
1002.00
967.51
1037.53
625.25
866.16
1171.06
830.39
565.00
1261.58
768.38
964.42
911.41
922.73
859.71
978.38
922.62
966.06
2172.19
1103.72
1018.41
445.87
511.38
887.48
941.29
782.76
692.13
627.00
758.87
851.14
579.20
970.12
826.98
1028.25
745.52
963.24
1025.51
1006.48
793.85
724.82
341.39
757.58
479.24
2268.64
730.79
831.60
850.38
958.38
643.86
915.54
750.29
833.12
920.90
1088.88
599.51
505.55
617.50
622.90
429.80
670.78
396.39
613.04
917.61
734.48
715.81
981.77
784.68
1083.76
832.33
1103.86
811.95
935.22
1150.83
1071.20
871.99
975.74
969.82
660.18
849.98
772.23
702.26
870.91
786.87
926.40
849.75
865.91
834.99
722.53
461.66
460.45
648.49
826.92
492.35
2323.94
571.48
990.73
789.77
702.26
763.05
919.36
857.59
1145.04
825.44
1010.43
707.09
701.13
915.96
918.11
769.22
840.65
845.41
761.48
1068.26
1017.29
706.18
719.13
813.40
960.61
729.39
972.65
870.27
543.74
462.33
661.39
481.92
712.72
963.60
738.05
771.49
781.40
858.77
2396.27
838.52
967.32
978.91
946.71
907.99
977.21
735.40
949.21
893.17
699.13
880.87
972.66
1432.37
1248.20
906.73
983.58
794.26
967.23
905.97
1034.10
816.65
977.66
534.71
631.54
1916.23
825.36
754.44
640.82
624.61
483.19
1008.60
679.44
710.33
754.12
610.99
868.08
734.46
1111.61
938.76
710.47
448.15
586.47
357.32
665.34
419.51
758.53
1028.32
1503.84
1123.82
1447.66
841.19
849.70
919.49
955.94
898.47
805.34
531.99
653.64
364.90
726.01
578.97
2379.02
505.67
823.67
639.47
753.89
721.55
767.14
805.60
918.91
920.71
845.99
479.60
553.45
890.36
582.18
401.46
960.22
750.86
758.28
949.70
1021.94
738.50
765.85
757.75
894.88
944.25
996.16
985.17
566.42
382.06
811.26
423.39
554.33
459.31
718.22
653.78
785.05
782.48
2170.64
720.97
947.49
889.30
1124.14
914.24
1074.64
687.57
714.13
688.01
771.50
685.39
911.13
747.59
1221.46
998.91
917.38
740.54
973.30
818.68
876.34
777.57
948.95
606.44
707.95
2008.15
513.39
618.94
490.94
771.37
565.75
794.63
749.94
645.93
792.15
684.61
1031.75
921.66
1070.63
857.67
849.62
728.38
906.79
775.09
928.27
916.48
975.33
978.24
1190.41
797.50
1132.54
968.78
1069.57
913.70
941.37
906.30
890.15
401.09
646.52
727.27
452.46
667.35
1921.11
686.74
858.41
680.09
788.25
743.78
950.56
896.31
1040.75
876.37
1008.73
758.06
1113.35
943.42
1414.05
1234.19
1579.63
882.22
762.06
765.13
1019.30
625.79
888.07
853.95
1089.60
1156.80
1147.06
878.19
648.70
1085.56
1364.84
1550.27
1233.81
1092.15
678.37
701.06
1159.86
892.76
687.38
816.60
984.37
905.87
856.32
945.76
926.35
630.41
669.42
329.13
2352.71
665.72
794.42
601.76
1106.06
846.15
824.49
810.86
930.56
895.49
988.33
788.90
1031.58
756.84
722.48
250.83
654.80
329.12
714.61
763.93
816.59
917.28
872.31
719.39
745.85
2030.69
737.51
872.05
1003.33
798.72
698.89
557.03
675.64
756.55
921.57
789.59
905.48
997.75
1069.49
735.06
808.43
974.86
1071.85
787.62
822.72
932.84
971.13
498.35
552.29
440.78
1658.27
821.33
708.06
381.84
899.31
851.29
826.69
709.21
941.50
859.48
959.01
836.33
1049.14
1025.64
1120.49
773.62
1225.59
754.45
755.12
580.43
1035.78
1184.98
1237.87
842.00
862.45
1001.90
940.58
730.44
1139.85
757.90
650.68
374.82
671.20
257.89
633.49
491.79
552.74
1104.25
801.87
757.15
735.85
774.87
951.61
762.24
822.43
873.02
990.74
611.64
805.11
684.20
1095.69
408.62
692.88
613.99
956.92
906.49
886.90
769.07
1078.47
906.85
878.98
1025.73
1434.94
642.37
516.26
387.49
1016.13
760.97
1103.12
865.86
556.63
753.74
776.38
711.26
2034.03
715.03
918.30
761.58
1123.79
1081.14
1135.48
806.42
789.93
610.44
797.51
883.70
2075.58
822.41
776.19
634.59
666.72
866.75
889.97
773.49
879.95
940.20
963.57
597.97
518.43
1193.45
430.58
596.59
732.66
655.88
872.03
746.36
853.26
875.82
978.97
917.74
930.19
878.69
1097.77
842.33
1005.05
732.53
1171.95
997.20
1028.57
772.99
954.69
1355.73
1252.17
858.25
858.72
820.07
1010.23
1109.12
1246.90
1043.40
892.00
367.00
498.91
496.55
670.37
1062.11
1413.98
1409.58
1280.94
913.36
669.64
750.82
827.46
748.48
817.27
851.56
932.21
662.75
1016.86
404.84
641.74
618.62
928.84
646.39
1146.58
940.31
1003.94
759.59
1173.79
931.70
1144.82
893.29
857.15
820.95
693.49
492.92
532.82
337.41
647.45
638.93
568.45
879.33
2280.23
730.21
843.77
747.40
737.11
791.33
1149.33
1105.23
945.21
598.50
715.18
580.14
706.28
421.58
796.62
670.96
889.46
859.96
620.66
836.12
964.64
816.16
930.53
748.70
950.74
1354.32
553.50
510.40
825.96
524.21
828.46
669.59
896.92
688.96
782.97
800.79
1138.91
823.41
1132.55
1008.45
1226.81
513.92
489.13
473.33
801.65
692.74
1382.30
1727.46
1652.52
1496.76
1416.17
814.60
912.38
838.18
964.83
879.00
869.83
902.06
494.77
303.90
441.79
879.04
1265.18
710.02
637.74
676.26
821.41
689.06
845.87
828.23
798.88
778.24
897.38
702.46
1012.28
726.34
711.12
578.96
1031.38
502.99
530.00
571.39
1118.13
1348.89
1542.18
1284.79
1304.12
941.41
1080.25
1017.70
1038.67
595.45
547.95
872.91
1181.29
1227.00
515.38
583.23
1759.86
644.95
786.31
767.84
762.59
770.79
866.58
674.55
768.50
692.58
614.97
459.60
756.42
933.38
915.36
610.50
816.15
612.37
850.71
624.90
606.58
793.15
1001.40
685.60
720.86
823.75
967.87
653.05
829.24
739.27
641.69
562.29
614.12
760.32
782.76
780.46
795.92
724.14
1785.03
733.76
952.42
980.32
953.44
817.26
827.66
867.11
818.18
563.77
866.51
708.28
746.69
1491.22
963.05
690.67
887.00
814.25
980.36
914.42
949.60
862.69
490.19
726.84
473.79
354.95
792.87
371.93
632.24
566.23
735.74
703.35
654.41
844.63
876.82
769.04
1026.83
824.33
1875.54
658.33
769.89
756.29
875.79
942.77
1132.09
764.61
1258.58
1200.27
1067.07
871.37
1722.72
896.02
865.59
905.37
937.10
640.06
655.37
434.68
715.47
403.22
665.17
866.94
643.56
886.87
1417.34
1369.64
1442.15
981.94
1046.56
803.22
959.09
852.74
637.02
431.96
832.44
518.55
1028.95
701.32
625.13
765.00
934.72
622.18
771.94
767.93
1088.91
955.94
904.58
1981.00
848.75
502.39
451.18
788.77
835.78
490.43
1527.50
1620.23
1322.26
1152.14
1012.37
1605.15
858.98
788.54
968.39
763.57
786.11
770.95
469.92
866.93
467.82
354.52
444.66
3494.61
609.05
969.09
1254.93
1040.33
909.43
828.52
828.27
707.61
957.14
1019.89
529.78
567.62
834.53
374.62
548.88
568.13
647.75
415.56
745.88
834.26
680.69
753.28
940.36
902.36
946.22
992.29
922.64
744.41
1075.33
442.93
734.50
764.92
859.40
610.19
1086.08
1059.88
1096.80
1072.19
1081.98
964.17
976.48
766.43
1008.17
622.12
708.56
952.82
424.15
545.49
493.53
984.67
627.84
949.99
698.57
819.50
914.46
821.28
945.01
832.07
1105.22
901.87
903.22
3208.42
924.90
344.58
661.10
584.48
781.66
721.04
891.60
751.88
800.05
651.43
1106.51
1187.42
1347.46
1077.88
985.86
660.79
619.58
495.86
403.71
351.65
528.81
621.65
771.71
926.39
1891.85
657.37
943.65
893.95
852.14
897.37
967.12
718.27
676.33
637.29
651.55
352.63
811.86
1259.18
987.36
978.28
1050.67
940.79
948.72
862.50
831.90
874.96
965.46
909.61
482.27
1655.80
715.47
340.76
623.12
603.06
677.70
523.94
892.34
929.50
713.49
654.21
811.40
772.17
1446.46
1149.29
1046.95
785.99
887.23
540.50
971.78
835.86
1110.05
1057.64
1500.13
1126.43
1234.23
916.51
940.73
859.95
945.76
718.33
911.22
690.06
918.19
256.67
802.96
556.07
804.95
736.37
448.06
567.31
785.82
679.47
741.86
838.03
659.45
859.19
938.34
698.28
641.31
538.42
362.71
370.59
610.04
603.81
843.43
664.89
1132.99
786.86
902.83
692.19
910.88
2159.73
927.49
848.43
1015.30
1088.18
1213.62
1008.94
1107.58
1373.11
880.27
539.67
843.61
973.42
915.46
1219.38
1371.66
1064.24
870.54
725.07
978.70
891.54
545.85
497.68
535.55
1235.71
822.84
784.48
601.75
956.70
920.93
851.70
659.55
901.84
1031.94
832.34
943.19
798.11
633.72
807.18
714.57
515.26
590.13
502.31
614.65
571.15
803.26
848.97
754.50
688.53
1363.99
909.99
1029.07
807.14
1050.50
594.10
914.63
1016.34
744.08
710.10
860.42
645.34
1254.70
776.81
845.72
506.24
1019.77
855.97
922.71
1093.69
1044.89
821.87
644.37
409.66
1060.25
1255.97
619.26
474.79
584.52
964.61
780.10
655.60
780.00
781.99
751.29
869.75
852.17
1036.74
881.51
965.89
624.04
671.71
749.66
786.43
737.02
750.62
851.65
702.91
611.16
626.09
1526.29
899.56
828.64
811.08
786.90
386.36
465.41
408.48
464.04
690.55
714.14
500.43
763.18
1114.04
833.92
810.56
1051.95
918.82
986.77
1009.49
1039.95
797.24
964.16
1078.40
739.32
1167.59
1062.40
897.52
826.20
962.94
1211.02
803.39
885.32
834.55
985.79
777.50
903.97
3542.55
639.99
399.20
770.49
597.05
705.87
500.46
585.82
634.76
722.28
914.79
799.35
696.19
1460.54
825.61
922.67
897.13
992.14
488.87
708.66
893.99
671.56
638.37
779.98
555.74
808.83
1118.66
893.88
764.99
811.75
750.80
966.79
884.46
842.94
697.03
500.32
348.56
646.44
2015.31
663.40
579.10
559.55
775.53
860.78
885.34
1015.70
871.48
902.59
1155.76
1527.25
998.71
769.24
650.72
1409.88
1410.53
1361.22
932.85
1047.80
907.96
1128.66
956.48
632.73
1870.67
863.76
830.17
764.31
817.10
897.96
604.99
612.75
382.50
494.92
426.99
706.57
385.04
748.22
787.30
823.10
554.21
896.49
677.01
899.17
684.58
992.11
1033.26
880.20
669.43
608.47
907.96
974.13
844.43
598.85
903.41
912.46
930.67
909.71
868.16
959.93
946.60
921.00
3395.30
551.48
671.95
571.44
716.82
1002.83
823.57
1226.21
1128.71
1111.84
957.78
827.33
1826.83
954.47
1054.78
1336.65
975.99
1115.76
627.28
908.18
1156.57
669.94
902.97
1153.74
1197.52
922.14
1018.75
938.67
577.25
1010.22
810.15
825.61
838.84
762.12
1050.33
742.81
1097.67
506.54
456.36
788.97
990.98
1062.15
1014.21
897.28
645.72
1165.25
998.92
1184.86
1456.17
1061.94
934.58
942.56
1212.24
1697.77
990.48
1193.24
770.87
1131.30
745.85
1406.75
771.54
659.72
617.44
1036.79
907.55
926.75
900.20
915.10
531.26
378.25
382.23
616.79
588.15
691.86
659.34
571.66
696.60
869.59
771.24
737.46
853.88
802.20
835.42
849.72
3280.20
416.10
434.33
757.05
651.83
647.47
558.01
583.94
810.37
725.82
720.96
760.74
957.75
1320.58
1075.68
960.00
960.63
864.23
790.27
974.93
935.03
857.27
419.12
696.41
569.40
2286.11
1070.08
771.27
750.38
762.31
895.45
843.72
999.08
974.95
748.13
723.54
561.03
1258.40
783.62
1049.02
704.63
1086.78
1169.57
1001.10
862.43
1038.87
843.87
1159.49
1033.30
1681.84
906.89
614.12
778.79
484.01
422.66
571.19
423.68
512.11
752.41
960.04
815.29
757.47
1116.90
771.92
950.42
1014.86
761.00
684.24
348.09
696.03
965.80
1169.11
634.66
946.46
1870.77
1270.84
1155.59
1051.39
1037.70
1200.46
1101.29
908.29
1074.01
1006.55
625.82
1375.98
423.28
693.07
586.06
611.42
696.23
944.02
866.72
1290.78
1205.74
1338.85
892.39
1055.03
1162.69
1134.00
1052.61
986.98
403.97
734.40
977.44
931.84
926.47
820.75
662.76
1343.02
853.86
689.74
794.33
832.14
685.56
939.92
1007.03
786.62
487.18
558.90
296.63
501.20
906.73
728.31
413.12
823.57
754.75
686.28
731.02
848.50
710.25
1034.12
817.10
810.70
603.80
1005.37
245.95
449.28
340.58
748.64
987.00
1106.84
863.13
1098.86
749.49
710.39
1227.47
1204.40
985.42
1175.04
1386.95
1438.32
842.71
918.29
747.98
1089.47
590.57
631.63
3058.52
1122.91
958.25
1043.32
871.91
1383.97
930.08
1110.33
1054.31
624.44
560.24
621.83
1251.79
1057.71
1199.90
1051.15
672.38
1022.61
747.04
805.52
743.57
1022.06
903.79
962.81
1925.22
888.54
427.32
623.57
754.06
532.59
612.95
748.35
502.70
608.22
762.50
836.26
647.99
1097.25
810.88
787.04
764.71
794.86
881.99
757.59
307.69
706.46
911.34
642.38
754.02
1373.31
1166.82
1306.85
1083.94
1163.87
901.21
785.44
786.17
1012.79
785.85
640.16
463.95
1828.35
409.71
643.48
565.75
675.61
203.30
776.19
641.99
807.52
618.67
913.10
941.06
1090.88
1213.96
1225.20
1034.31
1236.84
762.14
839.68
673.48
643.61
627.88
784.45
618.22
996.68
954.33
850.57
859.99
816.15
785.95
917.52
970.24
695.23
349.96
611.18
352.75
769.18
789.33
829.20
740.52
804.24
648.87
838.55
790.69
827.79
748.21
928.40
731.16
719.32
568.85
1302.86
646.08
881.82
690.25
1053.79
740.34
1097.47
665.67
894.54
782.57
802.67
802.29
870.70
1175.12
894.69
532.41
711.84
478.10
712.51
496.31
475.13
683.41
632.91
729.85
854.54
2852.03
1095.02
844.96
881.49
850.82
1125.71
832.85
782.09
655.08
939.96
760.74
860.45
463.13
807.91
961.27
776.57
811.27
754.57
778.74
1024.10
815.05
912.62
969.87
822.73
600.68
1252.87
668.03
668.87
840.98
543.27
678.28
839.02
744.20
780.42
851.43
981.75
1030.26
931.19
1304.59
1284.04
971.30
954.67
880.44
1223.90
944.31
993.66
861.10
680.02
695.19
968.13
748.74
807.09
760.15
918.32
919.53
820.34
774.00
556.26
474.72
529.42
573.54
759.00
263.63
653.83
798.01
861.33
756.25
974.54
759.49
937.39
902.35
895.29
640.66
677.22
577.10
1369.07
1135.95
690.02
596.67
924.63
776.23
1304.26
1007.86
894.27
643.92
820.72
736.98
937.53
1005.79
890.72
662.26
952.65
1188.03
793.17
1072.92
728.38
553.96
545.27
668.62
1012.62
2028.15
1020.08
1035.25
969.40
862.92
1020.29
902.31
675.03
408.81
678.22
334.41
548.59
422.12
647.29
545.67
720.32
939.13
879.64
1121.13
1269.85
956.51
1438.31
1938.37
2142.01
1106.60
1002.21
378.39
629.90
1169.98
1352.01
1601.76
1460.42
2072.45
1782.73
1360.32
813.35
1089.78
935.92
803.57
1190.93
902.38
832.25
760.48
1137.51
972.29
1166.81
1176.64
1544.64
1599.87
1520.18
746.85
944.03
969.63
927.94
1049.79
1102.06
1069.84
705.50
655.07
1270.65
601.70
765.53
613.06
783.98
831.61
986.38
794.77
1105.99
1152.69
1370.19
1289.67
1798.03
1375.78
1459.19
858.33
730.46
826.02
884.06
784.64
1191.03
698.49
1280.62
887.10
1367.44
975.02
1359.77
1092.38
987.45
667.01
942.78
623.45
883.36
1083.25
906.07
1149.75
1095.04
1188.07
846.17
786.39
851.31
714.85
821.02
996.82
1119.22
967.14
983.88
1065.77
706.15
438.15
838.17
1022.46
1004.10
930.50
1011.51
1232.09
1347.05
1117.96
804.56
2944.20
1253.79
811.11
830.36
922.34
1081.77
619.89
867.79
849.40
835.61
328.27
687.74
2742.74
934.77
1056.26
1115.95
1118.36
1021.12
811.48
871.57
872.09
987.90
916.29
970.28
992.15
1077.79
1038.02
1021.71
739.22
779.05
845.75
933.14
937.68
932.11
922.49
1329.96
2242.45
1265.97
964.88
702.75
1135.90
989.80
1234.23
759.46
927.34
562.92
893.71
845.15
954.21
815.36
814.85
1001.53
1052.92
1407.11
1521.99
1963.06
1145.49
941.37
1067.98
1356.81
547.23
706.51
690.21
1050.74
1043.69
967.50
572.56
877.73
864.09
963.72
967.88
1332.56
508.42
589.82
951.41
814.46
556.24
1023.83
681.85
969.29
615.83
1015.82
769.65
767.26
1238.80
1029.15
821.85
851.86
1036.59
675.10
515.67
824.04
918.68
897.17
445.51
678.40
2879.43
900.45
655.78
751.16
979.28
1404.79
928.49
1229.80
1127.44
842.48
350.77
778.82
3053.03
926.45
693.19
1043.36
901.77
977.19
563.74
862.65
725.86
789.76
725.59
978.42
998.53
1426.69
964.99
613.05
746.32
530.09
413.89
749.72
668.57
877.62
909.64
1414.64
977.40
1409.99
885.87
818.30
841.15
1062.34
921.51
990.45
1043.30
1265.88
1003.25
1078.65
558.97
984.55
1204.63
1429.45
1259.46
885.12
775.53
830.83
817.96
1198.91
943.96
860.89
717.97
949.46
1067.92
941.11
753.16
891.18
819.37
1273.80
815.71
1118.16
878.56
987.48
736.71
1259.51
1035.95
1009.97
711.43
1098.20
788.09
733.55
497.70
635.91
602.00
634.72
803.88
1184.69
653.22
954.81
725.18
853.12
901.04
799.78
778.04
851.36
690.85
1290.65
1042.48
2243.84
1003.67
1018.95
860.24
983.86
868.38
976.92
804.17
899.93
771.79
878.93
782.98
2116.26
697.99
751.68
315.53
612.57
623.96
592.62
653.80
786.09
718.44
855.80
754.00
925.76
1000.66
788.82
799.54
746.65
645.20
958.74
378.95
552.06
338.95
898.59
596.64
666.21
925.98
1037.34
693.47
881.80
991.13
1067.23
953.13
970.32
791.44
531.38
795.36
870.43
636.05
1430.22
846.24
824.31
609.84
847.33
763.25
880.65
1030.65
1157.40
889.87
1204.11
1111.96
2299.93
1120.00
1349.11
1242.21
1044.81
455.16
828.26
670.74
962.95
712.80
1048.65
819.38
1039.25
887.44
1038.35
875.47
843.97
782.27
876.29
823.44
495.23
333.35
872.13
963.61
2158.82
699.01
975.70
845.36
1048.04
994.37
1120.96
985.36
1136.31
1024.55
891.74
881.58
1366.15
774.70
940.43
696.96
988.52
1131.20
1289.48
886.57
773.20
792.58
837.36
780.63
1083.11
796.95
959.21
741.69
771.92
719.01
529.01
803.60
907.30
597.23
787.32
995.04
1240.66
867.04
1146.92
908.37
970.99
876.04
881.97
1331.90
1707.54
952.38
1025.74
1400.27
2048.27
1325.04
986.56
888.96
930.30
710.82
697.82
833.92
918.62
882.25
999.34
989.04
2022.72
483.45
605.02
761.84
678.54
499.29
701.60
428.56
840.95
792.23
789.69
883.40
982.02
1013.52
1174.32
1020.91
1217.87
749.41
728.77
449.49
799.94
580.59
622.85
667.73
716.37
2291.72
1003.71
846.04
1214.07
1073.82
996.31
925.63
1122.09
920.51
661.02
726.05
535.09
2069.68
825.59
667.39
961.62
999.58
1052.75
1090.96
1286.49
1148.52
1265.54
928.75
976.16
1182.48
595.23
916.47
760.90
733.18
780.60
967.34
830.17
866.23
1303.64
877.38
906.59
2186.68
933.89
941.84
993.27
924.96
1009.86
687.31
785.84
1123.79
1420.85
1200.90
1440.82
3116.51
1302.92
873.96
901.46
798.55
943.13
770.04
1004.42
924.07
1041.17
826.14
834.88
2044.73
659.75
720.96
680.63
972.66
568.01
933.03
952.93
726.10
816.03
1060.50
980.27
854.18
1365.82
1070.81
780.36
896.09
1065.42
588.34
653.25
680.43
699.86
685.43
901.63
817.10
1408.18
871.76
946.16
858.47
1109.72
811.16
840.46
425.58
604.83
315.87
667.89
549.70
1171.68
1302.67
1431.33
1025.71
958.19
663.36
1291.67
1127.13
1192.30
840.63
1089.43
634.87
1021.93
710.25
795.83
464.76
844.75
780.05
629.86
787.49
864.37
903.29
918.45
887.15
2220.58
756.08
887.85
864.77
855.89
704.02
948.82
1118.45
1442.27
1206.83
1354.36
1198.84
2180.98
1073.79
1192.07
841.93
965.37
978.73
932.40
952.87
1000.97
562.16
779.38
751.96
1239.95
494.26
775.35
620.83
864.03
891.45
915.88
704.89
946.57
950.55
1085.70
931.01
2381.71
698.02
863.75
550.46
1023.93
858.20
1169.43
1142.19
866.50
965.45
822.87
802.66
1111.55
884.38
1069.04
792.49
1133.92
778.38
713.96
719.38
866.98
817.32
703.39
481.31
828.81
775.21
1068.32
914.03
1364.46
1008.97
938.13
691.33
845.03
884.05
1012.09
377.32
537.66
1566.86
752.16
388.90
773.77
773.80
1099.96
900.58
987.92
673.59
912.13
853.02
921.39
939.35
1265.80
979.28
1093.46
706.65
888.46
565.24
672.25
904.21
1283.17
1065.46
1108.32
1250.57
1802.24
1300.52
1113.50
992.87
965.10
1166.18
1427.60
1721.66
1452.74
1172.36
769.70
587.94
690.91
722.68
955.10
1045.52
903.23
972.60
941.29
808.92
1184.49
943.30
950.92
712.86
604.08
299.24
710.40
453.43
927.99
796.45
827.68
904.80
855.79
934.43
1204.17
1017.48
1401.28
1342.53
1505.32
1236.28
1049.50
828.39
488.90
450.60
643.67
878.44
653.95
1944.54
881.49
900.04
1352.09
1113.83
1244.48
1271.45
1251.19
910.34
843.30
489.00
683.62
708.60
698.23
500.54
677.02
506.25
804.78
1033.58
730.94
855.18
1016.12
802.46
1052.42
998.68
1085.96
900.00
1043.16
1091.68
1011.41
1108.33
1017.78
857.24
1309.38
1078.21
1094.21
1475.25
1398.97
1161.88
1322.52
936.64
1021.66
1048.33
773.74
708.76
624.69
868.59
850.31
1044.72
520.63
822.49
921.27
794.67
727.72
859.63
962.94
924.31
1376.75
1044.44
1018.27
1055.45
1236.04
992.54
998.13
452.59
719.95
691.06
902.32
900.67
799.76
846.90
1029.45
1956.65
946.31
833.65
1058.83
406.17
604.49
428.47
1010.02
679.12
936.40
778.98
837.31
2896.88
1071.84
845.49
1110.35
1084.52
1165.02
1018.17
1315.72
1177.13
1436.78
1160.14
713.08
778.38
1388.62
1818.21
807.16
1085.00
870.49
815.85
956.08
940.51
1083.16
889.21
1310.83
1112.29
1175.08
795.81
499.43
1070.89
740.36
999.88
1162.82
764.36
1027.59
943.08
1478.41
888.89
905.24
874.60
884.09
995.92
1266.72
1225.92
1375.63
1404.42
1446.08
878.75
1042.48
697.24
978.81
831.11
833.50
709.10
1069.86
844.46
930.59
1106.91
983.61
1028.84
732.25
335.86
802.74
765.02
768.39
1043.06
1037.24
798.08
924.45
879.00
789.28
808.82
2372.78
824.59
1089.05
963.90
807.77
747.04
741.51
487.59
653.17
401.26
752.02
693.47
1297.59
1115.48
1008.39
1016.57
926.92
991.12
1104.16
933.14
939.39
640.76
584.27
381.26
1013.84
1284.98
1211.05
934.80
1027.62
952.21
920.33
926.95
847.37
965.41
1105.44
807.79
969.89
1469.22
592.24
628.61
1491.16
1233.61
1151.73
628.18
1085.35
892.30
1322.40
945.49
878.64
945.51
951.12
859.40
938.59
913.04
764.62
766.90
662.41
891.81
949.87
787.89
705.19
2554.37
941.52
861.33
904.92
798.28
1131.52
995.16
1198.18
910.98
1067.00
718.35
979.32
1962.36
701.26
974.70
626.62
824.89
1393.13
1646.29
1925.93
1013.17
1093.41
1108.46
976.40
1036.28
1064.49
874.44
741.28
254.99
676.76
317.56
840.21
888.14
717.96
946.34
1000.34
1423.85
795.41
919.14
1144.26
982.72
1099.59
992.67
910.52
573.91
1158.71
1075.39
1292.99
1498.66
1591.16
1069.72
1106.72
923.49
765.02
930.51
1028.67
960.96
980.69
1048.26
2353.13
952.42
1061.88
1018.97
1082.61
535.75
1022.54
807.20
760.70
936.76
956.32
693.07
1998.62
816.06
758.38
789.43
929.18
634.49
615.80
561.39
1189.48
893.77
889.90
742.04
1517.97
1590.41
1410.82
922.25
783.49
921.62
977.28
799.83
1042.33
925.39
519.92
587.43
579.56
691.77
698.10
496.45
1027.98
606.99
829.00
1050.06
781.02
762.32
952.21
1035.10
993.42
2236.07
1133.68
987.61
1411.21
1317.96
1287.41
849.09
1329.74
1008.85
1560.02
1425.37
1179.61
651.83
873.20
864.74
963.58
1112.06
1069.14
1354.42
1248.93
913.93
587.54
404.83
1301.77
932.62
1040.72
1111.92
1084.07
802.13
808.00
847.26
861.93
1051.28
928.16
916.71
2006.51
869.59
1374.41
1472.31
1383.55
1307.65
1435.09
1633.02
2202.59
1548.27
1114.78
959.16
952.40
1020.69
859.21
1014.48
1196.65
755.30
546.84
476.12
641.69
696.22
621.59
995.45
714.49
887.96
820.45
794.94
856.50
850.56
918.83
818.09
931.78
913.79
807.36
512.82
2186.44
1133.38
1103.31
602.97
1160.24
1067.01
1673.59
1555.04
2022.41
1431.83
942.11
806.64
1054.48
1083.87
843.51
550.84
1017.73
628.99
527.21
584.64
777.94
601.93
794.20
808.78
1713.35
1555.17
1672.48
861.82
868.65
824.37
961.02
569.55
513.80
479.48
791.29
864.80
1364.58
843.62
1253.53
772.21
872.12
658.75
749.60
881.89
824.86
862.30
1157.45
805.71
975.84
744.39
561.01
315.53
539.44
582.07
702.33
782.87
850.82
790.32
1069.87
918.64
1031.69
915.55
981.75
1045.09
1163.31
819.13
861.21
609.61
1175.97
901.91
1008.30
821.59
2271.54
1011.97
833.91
888.99
1156.53
923.53
903.75
968.19
1093.18
494.00
445.97
412.44
1836.02
653.54
864.45
701.38
750.59
793.56
989.30
698.97
1063.93
926.58
1021.46
1015.56
1371.52
1174.98
1174.16
890.72
713.75
490.39
726.00
747.87
928.09
1101.67
1373.45
976.08
1757.90
1001.36
979.76
866.15
1019.95
947.61
805.50
460.51
821.79
452.59
842.47
696.37
1812.79
724.25
987.65
751.63
912.94
797.30
1010.11
903.87
1086.35
977.26
1122.46
524.41
642.86
770.13
433.17
746.42
946.18
986.80
1559.51
1392.17
1601.50
1033.00
1025.82
840.96
933.53
879.05
926.90
990.42
805.71
389.58
738.31
427.40
618.21
885.79
781.49
961.28
1065.23
1871.36
837.67
926.66
886.81
902.33
1183.80
989.99
1071.81
681.84
1100.05
883.13
845.73
1970.20
1093.59
589.85
1058.17
1072.48
1102.95
772.44
840.26
1015.15
968.88
972.63
909.90
1405.55
553.59
707.11
445.81
734.76
382.22
418.73
713.86
708.86
786.43
761.97
1134.47
1067.31
1337.91
1175.39
1115.60
874.76
880.77
758.07
1123.55
644.53
973.88
606.51
1036.51
1882.69
1276.14
847.11
1162.93
876.89
934.46
873.17
979.84
1056.88
620.62
507.86
715.29
1922.87
750.85
584.05
776.13
724.03
779.52
808.68
851.58
871.45
948.10
854.49
976.44
975.14
1325.59
666.02
919.26
962.05
1013.58
1065.16
1255.64
1177.83
1393.50
1377.77
1404.69
604.30
1021.45
911.65
868.88
977.82
1079.31
882.46
613.21
434.28
493.39
379.55
505.96
836.64
1113.79
688.62
1056.40
932.04
857.48
962.79
1201.80
947.65
1077.02
1063.80
915.39
792.35
1192.11
882.53
901.27
793.57
858.39
533.77
857.36
750.31
903.20
612.68
1038.57
953.08
2465.58
1039.61
1066.97
421.59
594.17
352.23
708.89
647.06
658.72
537.94
738.39
793.95
970.86
714.53
954.47
898.99
1098.56
897.14
1149.35
986.73
870.10
484.34
743.97
475.87
888.74
976.12
840.16
1070.70
872.83
841.22
879.78
865.91
1095.56
879.78
1167.42
1146.04
1316.08
1554.26
1166.08
1081.07
1512.77
840.43
709.94
1374.46
1987.08
2018.13
829.49
902.59
2010.66
851.50
882.83
1016.49
1281.35
743.39
776.65
1009.21
1029.96
675.59
829.55
757.11
839.20
625.02
675.57
628.87
856.16
1017.56
991.17
816.64
897.44
934.03
691.69
326.30
755.05
1640.44
884.89
604.87
679.00
746.13
995.29
925.07
1211.33
1161.25
1292.95
1054.90
1653.16
2264.31
1076.23
733.57
1455.95
1132.48
1472.42
993.53
874.25
437.07
847.57
995.94
766.02
803.60
878.49
833.32
779.55
999.38
872.58
581.64
749.43
465.87
503.60
320.44
440.69
2412.44
601.21
848.07
735.11
643.72
808.93
680.68
834.91
877.70
1193.13
1047.98
1313.34
793.17
1437.60
765.14
1043.60
924.52
905.62
952.25
910.47
792.49
734.84
836.14
843.93
855.75
1406.13
959.63
898.17
349.38
740.09
384.89
602.97
629.77
636.27
531.76
723.21
836.36
1000.44
866.87
1242.98
1086.37
979.33
868.90
1017.84
878.84
1025.59
946.74
1166.52
691.86
2347.78
932.20
754.22
1000.04
862.24
586.44
899.09
863.66
1137.45
891.72
938.84
999.66
853.24
934.75
1012.16
765.65
725.25
437.91
654.59
1004.12
888.18
696.66
790.70
786.67
894.46
2324.09
1031.96
725.11
940.20
760.91
929.49
566.81
564.39
690.77
649.15
622.45
860.78
807.28
1011.85
713.73
943.47
906.51
962.74
895.49
951.31
471.95
470.90
691.95
1046.69
758.48
787.69
436.19
733.72
656.73
748.92
732.96
785.45
821.41
992.77
880.42
1189.32
938.34
1111.19
1552.44
834.81
658.79
930.41
989.62
1173.59
997.47
1048.79
927.35
1078.81
953.69
1024.71
1142.40
1131.56
960.85
897.93
562.67
668.96
645.04
972.76
837.91
831.80
832.21
1257.93
1296.58
809.31
676.52
738.52
948.40
833.67
762.81
863.19
473.08
220.84
753.24
456.98
2674.22
824.37
625.76
573.35
586.14
900.64
677.48
832.61
844.99
1040.81
937.84
930.88
1065.70
854.60
725.65
538.07
574.03
936.25
812.30
889.46
737.83
661.14
744.50
902.58
1023.22
1137.55
1106.54
1045.22
979.55
923.88
593.15
949.39
931.41
839.88
843.09
789.82
718.88
945.04
975.89
912.11
829.74
1006.15
794.23
999.37
762.39
1110.46
662.45
825.90
839.13
1250.02
1911.54
855.48
937.17
499.04
890.74
959.24
744.03
887.68
918.75
1088.84
983.88
996.38
2870.96
1071.81
637.37
899.40
580.65
524.68
604.47
976.44
946.25
1208.41
927.43
881.08
732.93
771.95
938.50
1036.85
914.75
811.24
475.13
579.95
426.43
625.99
541.79
755.71
581.66
671.51
851.21
949.10
855.45
885.74
755.73
796.29
1073.22
1356.24
876.65
675.20
857.19
558.88
885.65
841.73
639.32
1248.47
1014.32
1050.26
668.86
686.86
548.86
869.77
795.68
1058.54
1423.79
786.88
406.17
1002.35
688.47
687.74
605.53
921.16
728.31
920.99
690.02
856.94
3373.75
1065.38
1057.56
1123.93
961.51
869.17
645.16
851.28
915.91
838.36
770.35
786.40
688.41
1148.14
960.79
1017.00
756.89
894.01
990.24
791.84
944.77
983.22
454.36
435.81
602.76
1889.64
527.34
730.23
760.00
599.77
826.31
591.09
692.13
850.02
1094.04
1376.19
1367.23
1727.96
1800.59
2255.47
1708.74
1056.47
654.98
664.47
611.35
957.94
979.11
819.95
820.94
1260.36
900.59
889.36
1167.04
828.55
810.65
733.66
536.76
872.82
1079.48
990.64
659.51
2104.09
675.89
769.20
1120.90
679.95
647.53
801.95
949.78
1006.90
852.86
1058.42
789.63
457.56
475.22
857.98
1293.00
741.28
677.53
825.43
990.36
959.71
771.72
828.12
842.56
819.42
1400.75
988.21
881.29
515.03
449.10
397.46
431.97
851.51
794.45
463.10
758.72
793.84
673.00
953.83
865.86
1144.94
1250.57
1763.39
1109.22
1168.08
1179.30
1429.56
978.28
737.19
1757.24
813.12
582.91
880.25
817.07
839.95
669.63
834.22
917.28
831.58
787.25
977.46
870.80
492.94
180.56
581.46
288.58
629.17
903.11
773.00
598.93
784.82
820.80
792.32
781.14
1006.49
972.28
1087.74
1190.93
1597.78
1136.36
931.89
562.01
373.04
485.84
989.12
1266.16
2049.48
825.23
490.12
956.83
853.47
921.08
850.68
1031.88
697.43
845.26
833.30
1325.07
1191.15
675.16
654.09
796.85
832.82
696.24
757.74
872.09
929.69
1040.55
1023.45
833.00
903.27
1255.00
708.35
557.15
669.94
342.16
691.39
947.47
831.11
947.94
856.66
795.41
856.54
3705.19
740.52
938.18
1057.26
918.41
381.55
879.59
602.84
445.40
873.01
753.54
711.59
820.20
1099.80
743.74
862.00
916.91
1135.14
876.50
861.92
771.69
970.42
759.58
817.73
927.19
2027.75
618.32
641.52
427.08
939.83
798.63
987.24
708.07
993.31
837.71
848.99
938.49
965.67
765.53
555.43
413.44
521.73
773.35
636.31
672.76
411.74
761.06
747.92
782.32
899.01
3409.96
1074.52
1014.11
1163.05
1189.47
1215.94
773.69
1021.79
1069.65
983.16
981.16
697.03
1491.59
973.94
966.25
774.91
990.53
1043.95
838.21
937.06
877.75
735.67
383.95
605.20
3637.07
619.12
414.52
814.25
779.56
966.20
853.60
942.40
862.43
899.66
816.19
1106.78
955.83
1217.14
960.76
904.12
951.16
918.33
844.14
792.03
1129.55
885.70
873.18
972.28
733.56
665.17
963.43
861.03
1163.76
1093.87
976.11
632.10
748.66
641.74
478.74
703.15
742.67
435.90
1053.22
790.96
918.59
556.26
787.43
846.60
773.17
852.10
857.35
1162.71
885.78
1019.70
1919.24
1215.51
1001.30
1280.68
1234.05
1445.36
1105.32
1208.19
801.24
1136.72
985.34
2627.32
1015.20
1024.41
598.95
395.50
425.41
745.01
688.28
1037.06
1050.63
768.41
679.52
2047.70
754.52
895.52
865.28
1255.07
1034.37
870.35
827.02
434.74
978.52
526.88
739.34
697.16
959.00
1209.06
904.69
1127.82
860.00
765.90
914.55
774.46
920.95
986.67
962.80
1161.81
647.47
627.49
675.30
506.10
552.31
397.41
350.68
766.70
683.88
886.27
817.37
1179.03
1549.32
1251.74
1088.93
1269.45
1076.40
1164.58
941.57
1068.33
761.85
467.54
793.85
827.82
1164.71
1397.61
1102.57
1091.22
1002.70
839.43
1019.28
1427.49
1061.51
610.03
891.92
1199.78
1042.38
702.74
760.18
506.96
799.07
783.03
944.06
836.03
963.94
1127.63
1061.04
1190.87
1094.21
1276.27
1034.01
983.24
1184.48
949.56
589.10
1008.15
1054.84
1175.65
1265.20
1439.68
812.03
1071.48
978.72
1143.08
945.95
831.10
712.81
631.18
527.28
740.55
622.59
1442.43
552.96
760.07
777.65
853.01
839.03
1066.02
1139.83
1044.69
943.15
1077.41
1087.59
1437.80
607.92
910.60
704.97
861.71
700.13
762.22
970.29
1013.89
777.25
647.59
832.64
2161.66
888.57
752.80
797.03
835.81
490.91
670.58
661.89
508.45
797.01
733.01
491.24
854.67
1121.58
840.73
866.12
1023.95
978.20
960.92
773.89
1042.70
722.42
864.36
690.58
853.50
1256.30
713.13
812.54
887.71
1012.94
1192.26
823.57
918.28
1122.82
1006.49
1059.15
754.89
1724.22
589.00
669.24
588.13
682.27
524.82
718.01
685.42
643.89
762.57
865.21
785.66
795.99
1031.58
1050.95
1024.16
1047.49
1133.79
643.70
930.06
930.62
1115.32
1013.44
1123.19
2593.51
1044.99
911.42
832.20
904.09
810.58
1072.45
870.97
1090.80
904.63
931.35
594.71
988.35
925.00
799.81
992.87
940.19
710.67
884.92
733.05
1116.27
1195.02
1100.85
1328.00
3401.46
1282.10
1066.53
1367.65
1038.14
1111.57
503.28
1140.58
806.90
1155.14
1044.77
1165.26
1030.81
763.62
913.58
1047.60
963.61
1060.56
1115.48
1039.17
540.06
794.94
380.29
888.55
631.35
548.79
760.48
618.18
1041.69
812.62
784.85
782.23
815.74
1059.13
1077.92
1049.21
999.14
1040.39
424.43
777.41
619.00
980.37
754.82
763.41
1042.28
985.59
837.17
837.30
1115.61
842.84
946.75
809.81
1043.18
458.20
964.11
418.87
521.64
734.64
574.05
805.09
1079.27
837.97
829.54
682.73
1082.07
1138.99
1203.57
1225.86
927.33
905.69
534.92
639.89
791.87
757.12
799.67
835.36
680.91
1031.88
1039.17
835.82
853.15
908.24
851.93
948.60
1389.52
921.07
802.62
374.52
304.02
753.93
585.19
629.56
923.83
619.58
751.45
669.85
926.28
887.88
926.31
1029.32
877.58
1163.11
980.50
958.49
943.65
996.76
822.34
959.83
910.57
1321.47
1198.49
1269.71
1163.07
1004.48
1109.21
1072.26
1078.57
1001.48
965.14
997.85
2326.46
1173.89
682.78
905.56
777.86
1157.87
905.66
1032.34
923.59
871.93
951.41
905.96
2242.41
917.62
1064.55
1020.89
818.68
1051.74
980.34
1244.59
961.05
1004.67
534.29
970.95
3931.18
1088.88
786.36
953.06
977.93
705.29
992.24
792.56
986.50
638.46
503.12
550.23
487.41
698.63
515.72
778.99
555.38
820.10
790.21
928.54
949.21
1192.18
978.65
1096.38
819.92
2557.77
799.01
775.43
779.93
977.69
637.14
928.87
762.56
1065.15
805.53
882.92
701.88
903.82
890.92
835.50
918.83
849.62
735.92
604.93
806.51
688.38
686.03
1212.18
1049.19
1195.25
1547.06
765.09
864.20
773.84
877.75
1069.03
1027.92
916.84
1042.28
1056.61
925.18
1028.11
1858.66
968.67
804.14
1023.21
1008.75
1385.04
866.52
845.98
813.44
576.46
987.30
808.95
1444.23
749.14
574.00
263.39
598.93
383.98
620.45
777.21
659.05
828.64
940.17
1166.93
1091.68
1284.00
1182.51
1368.60
1238.34
1464.30
1084.75
969.41
953.16
454.05
1425.63
851.95
1429.52
821.76
747.86
1155.19
1090.68
979.06
982.50
927.23
827.98
898.47
985.19
390.11
1195.02
739.40
895.08
491.58
634.76
758.72
601.13
785.31
747.38
881.36
889.95
1013.37
978.66
1084.32
780.17
923.43
738.17
842.01
624.30
892.93
462.42
862.81
782.16
917.72
913.41
2059.64
641.14
785.45
727.88
737.35
998.29
590.97
653.21
315.75
329.80
626.78
549.67
633.19
781.70
611.23
829.69
614.04
711.65
580.61
739.36
983.37
898.46
883.46
766.00
859.47
336.17
902.85
738.32
888.98
634.78
818.00
679.75
819.07
863.90
606.49
755.89
790.07
794.66
753.17
942.98
793.99
433.84
345.91
297.90
369.74
918.13
532.02
591.13
738.81
739.08
724.44
2062.25
1118.67
1047.53
1036.37
967.99
957.36
711.01
1028.43
1155.91
1089.11
1196.95
997.13
955.11
837.97
958.96
986.11
884.76
652.46
846.18
706.52
983.72
726.20
833.25
338.93
3213.69
593.45
495.55
670.44
578.82
814.16
691.89
746.82
922.02
826.33
736.45
939.59
869.66
1433.80
1029.60
1203.45
984.21
1302.97
947.99
1020.06
630.97
1046.39
1155.34
1384.23
1054.38
1175.03
705.49
834.50
836.42
807.83
931.99
867.82
730.66
479.52
447.57
409.23
710.86
1675.94
934.25
363.14
836.85
662.59
686.38
796.50
955.15
1396.11
1266.22
1443.47
1402.11
1705.93
1234.83
1643.67
1270.35
1218.01
761.38
924.15
602.72
668.49
764.94
444.91
888.81
725.38
857.04
741.02
873.28
780.53
514.66
702.79
520.46
835.95
572.86
645.56
767.52
649.07
1174.58
822.59
962.87
598.66
770.98
1039.96
870.56
1129.52
914.67
1097.15
618.89
684.54
712.11
883.39
906.63
1476.17
1397.31
1443.29
757.87
733.95
838.78
649.15
809.34
946.84
1506.19
835.86
608.39
685.80
842.12
504.63
734.00
822.42
817.18
837.45
937.72
1179.61
959.43
1088.44
866.77
988.24
804.39
893.17
424.33
384.62
475.44
222.42
630.84
400.04
667.41
1518.40
1041.53
1310.13
752.40
1175.05
883.85
1057.42
1009.79
883.31
601.00
407.92
452.84
585.59
348.97
444.17
602.70
537.53
755.82
830.33
805.14
835.77
722.83
895.35
1045.50
833.86
907.53
995.76
1018.23
948.96
1097.45
1029.57
808.86
953.68
828.74
1229.74
986.34
766.67
1014.41
889.95
913.89
796.65
927.05
862.24
340.29
455.99
547.78
687.05
475.53
716.89
3048.80
712.29
884.61
808.93
615.29
1013.30
1037.84
1115.82
1039.14
1177.58
719.06
958.11
2022.51
864.07
555.95
946.28
587.11
711.32
611.46
924.65
843.02
699.49
784.13
827.34
901.47
1196.99
949.82
560.38
408.74
658.66
1127.59
1021.77
921.20
938.53
696.46
668.44
701.13
1467.82
895.66
1002.05
933.98
1081.90
1157.24
1078.85
888.65
1014.23
861.19
1187.38
883.56
1172.48
1027.49
1301.89
1121.11
1173.55
812.85
884.03
984.91
704.87
864.76
706.42
3714.39
667.66
1003.84
1279.74
1112.64
1081.74
879.53
699.36
930.58
650.94
874.99
966.47
3191.27
1309.32
1186.31
1160.97
834.24
533.20
641.25
783.80
741.77
854.96
672.30
922.16
3095.18
976.13
889.96
613.70
866.64
1054.27
1056.06
885.07
969.21
921.63
730.53
999.97
763.06
1048.97
655.82
750.47
591.79
779.80
788.51
774.07
749.71
993.85
888.82
1123.28
786.91
1232.66
933.09
1090.82
1019.44
926.42
658.75
1120.89
984.36
941.23
899.77
1047.76
707.51
887.44
962.43
816.08
880.44
730.15
963.63
447.26
708.11
322.45
341.50
503.10
542.71
816.64
714.28
756.34
691.91
733.29
712.05
923.49
1022.61
990.65
875.81
811.23
831.41
840.70
1759.84
1053.25
556.09
755.27
691.70
1250.41
906.28
1081.69
719.35
908.97
884.01
870.59
2205.52
945.71
712.34
507.68
493.92
444.16
598.47
582.53
700.67
720.68
776.28
860.26
1036.20
1099.54
989.89
827.35
924.29
860.92
874.93
893.37
546.11
1061.17
1219.55
735.32
567.72
1489.81
1005.53
1034.38
1084.82
796.87
871.19
881.97
820.92
671.38
966.83
905.45
729.65
1208.98
912.91
753.91
663.02
724.47
701.57
709.16
912.57
717.05
697.00
848.72
881.99
825.83
746.22
926.66
925.38
973.02
782.22
1001.60
831.99
897.19
694.01
807.08
989.13
1090.23
3149.45
730.40
807.17
891.75
884.80
887.94
1003.04
869.12
908.32
674.10
519.10
628.27
809.47
929.06
616.29
709.21
617.35
769.33
805.52
901.65
864.78
812.19
795.85
1042.34
781.03
892.64
1040.73
907.77
649.07
948.07
838.27
1161.11
1008.25
1136.15
865.85
972.07
751.43
851.11
1226.47
882.31
950.07
620.13
689.69
547.37
535.01
906.93
522.14
466.68
795.89
469.46
719.42
673.40
787.81
951.65
902.84
911.49
795.78
838.09
738.80
607.09
538.54
657.79
554.38
994.15
1181.88
1790.58
1457.41
1253.55
725.97
798.52
675.41
576.12
955.67
608.82
461.86
588.33
457.27
571.86
417.01
587.98
597.36
532.55
891.66
665.87
917.25
1017.82
896.64
1006.65
2013.55
861.83
692.97
668.74
723.38
815.38
611.64
760.74
798.26
875.36
734.01
1080.33
907.51
993.45
894.40
753.07
860.64
654.17
788.70
465.85
449.44
630.22
730.88
664.66
625.31
1852.06
504.62
548.28
844.00
906.62
809.21
907.42
739.65
929.94
847.46
1062.04
833.31
799.62
858.37
976.25
453.98
1013.10
725.59
983.32
792.13
860.87
559.93
786.11
702.64
670.49
700.08
789.40
702.50
419.48
319.11
646.79
448.22
441.61
587.99
468.05
553.84
560.27
557.88
714.31
901.37
930.64
765.82
861.12
924.48
897.33
531.07
971.99
697.82
980.44
738.07
800.66
1790.90
1080.71
671.26
823.14
787.87
828.95
802.97
677.19
826.86
570.27
415.68
522.51
704.97
526.16
578.06
435.38
726.01
550.63
618.99
698.42
681.15
805.54
685.39
861.20
768.35
800.63
739.24
766.47
509.16
987.66
835.30
901.21
659.58
700.29
629.07
803.43
679.05
503.30
1949.20
601.77
755.03
804.26
820.59
661.31
465.35
264.67
671.20
459.48
1001.80
606.36
477.08
824.45
718.90
778.56
738.88
842.88
716.55
822.26
965.32
908.32
698.04
852.07
594.31
1073.88
867.79
823.77
709.87
1016.58
933.63
848.48
668.58
940.67
768.90
753.23
786.87
782.14
1278.32
510.15
559.18
338.04
394.67
566.56
428.67
647.85
543.77
593.89
568.59
860.96
904.79
998.30
912.34
1160.48
848.88
1035.64
783.62
800.11
374.80
699.84
462.32
679.74
491.43
1163.35
760.15
714.83
645.89
777.12
624.01
879.67
802.28
681.77
370.70
404.93
285.67
422.39
849.41
727.52
771.45
658.10
605.51
609.63
731.49
808.26
766.23
1040.65
851.78
1115.03
1956.60
990.35
922.65
856.08
408.13
754.23
714.86
808.62
889.66
1138.65
740.65
675.98
2890.49
824.16
723.49
785.53
973.50
440.01
802.20
282.34
348.06
485.82
1056.54
555.70
740.59
955.63
819.33
833.75
715.52
912.53
885.83
1036.37
1003.32
1007.61
633.11
798.67
703.87
826.10
700.10
900.32
871.36
1008.63
839.31
999.84
718.64
750.88
832.90
845.05
954.20
818.73
1991.33
578.32
469.64
848.29
806.24
694.84
720.97
791.73
698.58
935.01
777.10
1029.10
833.32
1223.03
1110.07
988.63
955.89
1175.86
663.99
1052.48
936.13
1033.61
698.25
1025.77
742.41
1154.15
886.76
718.13
767.17
683.50
851.42
816.82
1041.30
861.02
369.20
512.46
359.27
1018.46
410.63
466.23
382.94
319.80
850.27
587.26
724.51
1057.52
1099.45
1251.20
854.54
1833.15
1019.70
1118.83
874.17
1148.65
794.09
911.63
555.77
808.48
651.36
995.42
721.96
1116.10
871.37
826.06
847.23
876.37
893.05
538.94
430.67
410.65
501.00
492.57
551.33
547.40
655.57
738.64
888.82
853.48
695.82
869.70
864.81
781.90
851.96
942.11
648.94
655.88
2361.07
735.97
643.76
1055.62
639.43
1275.82
792.58
1166.51
760.11
847.65
843.48
747.62
2844.95
685.15
864.61
332.77
597.39
525.38
1036.11
651.45
476.32
606.99
818.23
658.92
892.52
1176.29
713.76
921.52
951.91
894.55
941.91
954.96
739.24
1011.60
768.54
782.57
839.89
832.20
667.86
1084.61
728.00
985.70
912.95
927.59
836.25
857.28
816.70
885.22
429.95
334.06
1394.44
449.81
569.63
588.24
712.42
487.99
779.90
530.79
640.81
976.75
902.53
1042.36
890.63
1080.82
910.10
1023.73
509.19
981.69
747.27
916.93
672.85
974.55
866.03
1132.59
835.84
835.99
820.67
702.65
768.18
774.79
715.08
496.39
457.14
519.78
412.24
442.60
484.91
610.19
555.20
666.08
565.31
778.01
577.13
954.04
771.75
970.51
790.80
777.64
517.15
736.25
2137.53
867.36
617.91
775.98
666.78
1078.13
826.37
899.11
579.10
765.34
739.18
674.97
553.04
963.09
828.86
583.01
484.34
530.94
784.23
489.04
910.67
483.25
540.53
558.33
634.16
635.94
898.67
881.39
812.65
860.56
847.23
845.70
829.21
966.07
528.01
521.21
684.53
646.67
1837.41
1187.70
865.65
914.49
842.68
934.71
709.37
511.74
821.55
572.65
562.31
294.90
584.95
411.39
807.61
656.57
474.37
447.85
762.72
560.84
694.61
746.51
814.51
1029.60
864.72
1003.04
965.26
952.38
984.21
625.76
599.90
949.44
886.98
828.79
642.28
891.85
745.14
622.09
1135.48
754.67
734.46
689.41
791.84
654.65
685.66
510.57
336.50
373.04
398.26
459.51
450.27
694.48
510.37
772.42
628.51
794.13
808.84
812.67
685.31
768.12
626.92
924.09
667.09
770.62
692.45
962.39
637.28
975.32
862.48
988.08
627.09
899.91
658.63
680.81
770.05
508.24
1186.34
489.31
550.84
805.93
632.97
788.99
455.45
404.87
644.01
477.67
624.17
529.16
627.77
722.66
672.74
646.36
785.63
751.25
511.70
689.94
773.51
848.04
555.21
726.09
603.57
876.25
871.89
751.63
749.94
1066.01
871.57
819.80
867.67
886.81
647.60
497.79
235.50
516.87
907.17
347.39
613.86
276.64
614.89
467.58
424.76
541.34
664.38
645.82
639.10
684.70
682.66
816.08
809.97
567.83
345.55
789.72
605.00
896.47
955.26
954.70
607.70
557.80
652.89
649.55
636.65
641.07
620.66
407.77
427.64
578.12
697.19
480.64
465.07
612.39
575.56
586.62
2217.57
699.27
658.00
979.30
721.25
875.07
752.64
652.78
454.98
553.50
612.20
863.76
425.25
1056.99
381.15
834.11
668.36
789.50
545.12
679.69
677.15
708.93
512.80
665.55
802.75
535.36
463.84
478.86
325.35
318.81
475.91
498.25
636.60
430.75
630.62
681.55
679.27
719.27
2176.32
816.26
711.17
1113.95
646.15
829.73
771.44
838.54
552.38
791.42
591.06
784.28
629.18
694.85
539.84
581.34
570.55
422.07
528.78
626.89
610.35
426.30
478.74
481.11
678.06
467.09
689.48
323.90
705.35
503.02
632.37
648.01
632.99
740.92
577.39
878.14
678.53
811.53
2148.42
771.78
652.63
924.64
610.46
842.17
777.40
1050.56
696.36
590.12
716.44
587.99
693.09
1100.90
819.55
817.56
598.23
566.95
542.22
521.68
376.74
595.10
520.61
420.14
701.34
478.92
479.96
843.33
815.35
799.82
635.48
824.32
743.60
840.34
677.35
1194.47
611.63
897.25
1255.14
1173.49
928.76
836.54
640.88
680.86
588.67
616.19
678.54
633.83
739.43
336.42
1874.31
358.67
481.31
426.73
418.56
526.89
596.69
473.75
594.81
468.83
616.76
740.23
641.71
1161.34
656.40
686.53
561.92
668.06
549.49
466.16
688.76
632.85
596.54
915.85
813.01
642.46
690.08
951.39
660.49
741.88
680.20
591.46
463.65
622.37
635.79
622.55
678.88
572.61
1842.21
505.97
412.55
572.48
502.91
602.98
608.47
572.52
731.62
690.52
616.22
687.47
506.67
1015.44
861.48
1570.38
1236.84
1269.10
969.05
1061.04
754.33
647.87
566.72
539.07
629.60
1081.50
676.27
349.84
401.20
423.33
458.35
511.43
510.61
335.31
545.81
616.35
655.73
665.43
909.59
1257.32
1172.33
1201.02
928.13
969.69
708.26
895.68
484.47
940.44
594.50
868.56
1113.34
1281.45
1020.35
994.70
670.40
675.56
619.10
709.55
760.41
584.62
777.55
342.66
636.25
446.72
303.47
658.24
624.12
660.07
674.32
691.28
633.16
704.86
728.79
954.00
805.09
946.89
722.33
591.47
541.58
416.36
274.00
727.36
795.47
678.79
435.38
579.64
613.44
559.71
702.25
990.78
732.29
819.99
680.09
619.05
501.03
376.96
326.78
307.94
450.94
483.89
1681.84
481.08
633.90
657.64
555.31
671.66
643.01
748.16
657.59
816.82
729.28
859.11
690.71
1221.22
832.81
1147.30
731.95
971.48
657.27
845.16
634.50
500.57
615.93
611.86
634.10
1635.11
611.05
477.21
413.98
493.85
451.71
594.68
754.63
643.01
507.79
439.17
579.28
587.60
818.39
858.51
762.49
935.73
747.56
885.02
751.40
771.26
917.05
812.89
785.37
727.92
871.88
1000.58
910.85
919.34
571.20
655.48
687.82
547.18
691.03
599.23
709.55
473.27
434.32
385.93
415.35
370.92
722.98
530.59
586.35
581.29
734.33
837.65
763.92
862.52
780.39
735.97
1656.46
777.77
659.26
891.22
1098.44
1141.39
806.94
919.92
779.76
1104.80
948.49
772.30
1671.59
876.22
751.34
545.06
726.32
638.47
592.48
452.60
828.53
522.32
627.99
421.80
504.06
844.87
603.31
685.72
642.97
821.75
847.18
830.40
723.59
885.45
775.09
879.09
725.22
848.33
829.34
955.28
748.04
875.11
1054.65
1100.86
811.65
526.31
726.57
521.76
632.94
589.91
1265.12
486.02
367.32
484.35
423.08
654.98
716.14
518.78
383.76
541.72
585.21
662.87
562.82
953.26
810.04
1007.23
796.66
946.93
689.72
902.13
847.30
796.24
683.89
844.77
726.98
981.56
1048.45
1071.74
714.40
728.70
743.44
623.76
819.03
771.11
787.37
342.25
313.57
222.61
780.21
312.10
337.12
639.51
660.83
801.11
773.28
902.32
950.82
1441.41
1198.20
1220.30
2484.53
1115.59
793.63
842.26
883.87
829.12
509.99
834.87
671.91
932.70
773.24
740.75
2390.37
821.44
724.07
768.46
885.12
711.87
587.08
453.42
378.29
369.84
454.84
595.41
809.95
1063.68
856.78
665.48
843.17
913.11
1031.35
1044.29
918.19
997.66
740.21
944.86
687.94
836.89
594.44
955.11
770.82
1001.96
1004.71
1193.55
838.34
614.19
741.27
640.64
654.22
679.78
1973.73
644.89
433.38
469.52
567.40
517.39
517.54
833.21
465.66
735.85
625.30
849.55
808.45
1234.09
889.65
936.94
760.55
984.02
758.26
821.13
557.87
806.13
651.87
753.11
585.24
870.73
983.88
1023.00
736.56
782.24
796.15
685.18
860.62
748.07
837.24
413.48
194.21
577.93
1253.46
683.39
358.56
732.30
931.97
637.14
704.44
818.78
792.70
1056.40
788.64
850.45
2184.58
1044.08
869.90
750.54
605.79
746.03
890.40
724.16
730.49
1011.80
929.45
973.24
714.73
1006.56
828.49
844.28
837.33
752.85
528.42
454.86
392.19
358.88
357.64
556.36
802.38
598.45
791.27
725.97
701.18
945.29
923.03
986.11
805.89
942.47
996.41
1039.99
696.44
881.03
1127.16
1036.82
735.48
1013.56
1034.95
870.04
797.38
678.67
712.43
741.15
784.17
695.56
1939.72
670.65
463.55
534.06
506.52
580.02
515.62
649.77
556.74
593.73
858.77
778.70
824.19
1255.47
852.35
1083.44
913.61
1100.77
787.80
986.98
774.47
946.95
673.85
951.97
874.61
1482.32
1130.10
1147.51
794.38
723.71
811.97
819.13
690.20
901.77
880.03
494.28
402.26
1548.37
597.03
470.74
382.06
697.20
545.99
835.71
769.53
881.82
762.00
807.80
810.83
770.44
849.65
725.88
617.45
769.50
453.42
783.58
868.78
800.42
805.37
1080.71
803.39
817.28
2005.22
820.41
735.30
668.01
901.19
648.35
636.46
524.39
351.76
475.29
492.55
684.43
559.59
1137.69
646.65
654.94
658.28
847.51
889.28
1019.30
920.43
932.90
847.46
801.59
865.96
870.10
591.88
869.92
587.10
847.84
1020.09
1278.68
984.46
743.30
765.58
798.43
871.31
830.49
1882.92
757.21
454.60
280.20
407.10
657.98
672.40
650.43
626.26
852.89
797.14
1109.65
1235.21
1560.54
1104.22
733.90
880.03
747.18
648.31
874.12
535.95
867.33
677.35
668.80
755.38
812.43
803.61
976.95
771.38
748.38
843.40
682.90
931.71
689.11
749.14
730.18
775.78
891.53
961.60
475.14
576.59
629.73
872.78
783.94
652.73
730.19
766.37
858.38
887.59
836.30
2230.38
895.57
779.83
894.12
726.84
969.99
815.11
865.78
909.47
1051.40
909.82
981.23
646.03
1063.85
717.08
770.11
781.57
750.80
809.78
612.92
741.84
503.55
674.96
720.04
607.60
633.89
1104.95
709.93
747.15
791.30
794.19
979.85
928.00
1079.98
939.41
1081.58
817.57
1106.00
1024.97
972.61
709.17
981.17
772.95
1107.93
927.10
919.43
818.93
746.15
800.88
788.53
1440.20
748.32
419.17
613.08
357.61
488.64
686.71
573.53
647.40
721.22
808.63
701.02
604.34
990.43
936.39
997.10
951.02
983.15
859.28
982.29
774.92
995.04
781.61
871.47
834.79
2004.35
932.36
909.21
650.85
870.09
709.21
825.19
674.40
936.65
723.90
511.65
697.51
577.51
730.05
733.05
712.19
435.84
361.72
629.10
631.65
582.09
773.06
1016.74
950.12
1154.15
1030.09
1118.88
922.93
1126.13
547.76
842.15
675.99
838.88
845.61
926.32
977.98
901.59
708.08
798.79
752.09
872.50
676.32
705.92
669.02
518.37
769.09
550.58
545.43
909.04
714.51
305.99
707.78
683.41
581.92
802.60
828.89
1097.97
916.93
1020.98
853.93
484.74
568.27
576.29
1172.67
993.37
806.26
904.21
926.14
1034.26
837.35
712.41
789.38
887.38
794.75
786.01
803.34
803.08
462.48
735.60
783.04
710.82
585.91
879.32
762.40
821.26
954.36
960.15
801.92
1073.01
905.39
984.44
961.79
992.81
956.36
801.61
519.32
907.98
717.39
947.90
805.82
901.35
1393.41
1022.00
641.22
594.14
882.13
742.27
663.47
757.79
849.71
426.93
743.53
742.90
2101.45
605.84
509.85
856.89
621.72
818.01
764.19
679.92
825.71
906.15
847.51
956.37
995.22
1471.81
919.29
865.22
1170.79
1196.49
822.92
1090.14
833.81
1305.56
1231.89
1115.86
696.09
741.60
804.00
770.66
815.93
790.46
688.22
335.06
477.23
485.71
425.44
529.70
406.89
1656.52
796.02
565.81
773.36
795.28
824.62
954.25
964.18
1032.32
934.26
993.01
559.76
975.72
785.77
824.88
786.54
964.80
923.29
1227.39
1020.87
955.37
908.03
997.69
910.99
838.39
1328.98
691.10
420.38
368.58
354.38
612.98
437.29
659.59
569.87
722.52
809.55
854.41
772.74
1069.90
807.33
1077.44
815.16
916.87
630.92
802.95
705.78
846.53
770.28
763.16
618.99
1225.73
683.01
876.92
720.25
718.77
755.49
834.25
1004.09
912.98
859.02
359.88
482.36
304.59
720.83
421.26
449.34
525.68
648.08
647.46
801.65
948.09
910.43
965.40
803.90
1004.83
1879.99
1033.35
934.59
1031.27
713.63
916.93
1054.63
1034.31
780.55
1302.79
855.05
738.87
2183.97
787.89
879.01
902.41
914.66
854.15
627.05
571.96
1103.58
505.76
597.52
533.42
708.99
641.23
679.51
733.10
749.96
764.88
838.66
911.25
931.10
859.98
845.54
657.73
551.42
619.71
635.99
1065.73
826.66
822.62
654.29
950.89
735.63
817.11
714.63
895.74
853.84
965.81
1916.26
836.85
693.39
688.55
743.39
758.47
573.61
632.48
683.59
609.50
632.13
755.88
697.41
1151.56
891.24
792.96
756.20
1007.92
944.41
817.18
777.67
992.16
1138.08
921.86
900.48
1692.50
837.24
1104.74
810.96
844.02
898.82
828.10
777.82
660.78
794.66
323.89
600.12
258.38
494.43
431.85
655.59
500.85
525.02
618.38
736.40
878.76
912.46
976.77
789.62
936.33
1930.93
1006.54
577.86
882.49
593.81
741.45
960.74
835.57
807.50
894.49
708.39
820.76
616.36
1077.53
875.36
730.43
832.34
879.81
619.11
444.36
399.09
291.91
532.79
683.11
808.36
608.14
1008.95
717.40
709.68
842.91
895.94
1224.89
1097.44
1335.02
1255.37
917.20
375.67
1697.35
654.84
449.55
585.41
714.10
913.66
1021.86
945.59
814.07
832.08
862.03
769.81
841.66
862.28
797.32
528.87
692.13
935.18
575.87
517.42
844.28
478.57
657.56
727.75
765.48
3483.88
1086.02
1076.22
1166.62
1102.41
1132.44
1046.02
984.17
660.83
882.83
649.36
701.40
993.41
1092.37
1115.72
1138.16
757.91
748.28
686.11
842.88
932.34
749.17
815.70
360.39
865.34
666.16
622.46
411.44
539.42
589.91
528.84
682.18
911.81
748.76
790.16
771.76
844.82
1085.84
872.89
1074.54
815.98
956.85
648.79
737.78
635.59
500.62
573.03
876.83
906.76
1366.44
844.84
972.81
950.97
899.65
919.54
1056.38
616.89
461.76
280.93
545.24
428.52
960.36
1095.41
1066.44
818.71
793.19
895.68
845.40
997.52
890.56
1007.86
968.30
954.67
865.09
1879.65
535.74
616.16
788.88
892.08
818.69
867.11
899.23
870.08
708.68
970.15
814.29
797.14
876.27
932.66
817.93
591.51
704.60
474.07
664.65
504.34
678.36
707.55
608.61
973.35
933.55
953.33
943.99
973.83
1024.58
1054.88
1010.81
916.20
886.96
989.55
737.94
592.70
845.57
1304.65
598.18
918.24
731.08
800.27
794.13
819.68
806.46
1010.35
1010.14
881.88
518.31
357.65
677.45
595.74
479.87
573.19
953.13
545.63
1013.90
806.39
1001.29
884.37
917.19
891.68
1039.99
1130.56
1092.12
770.66
731.64
747.80
701.75
1074.58
835.00
743.23
960.57
1015.17
977.70
1037.78
1138.59
881.30
1042.94
1111.50
994.77
692.67
479.38
430.27
844.95
416.25
708.06
624.20
633.62
815.03
784.65
985.49
898.87
912.44
912.59
1046.16
1159.57
1112.40
877.28
965.39
986.55
811.91
892.45
596.13
761.90
1021.21
1132.55
887.22
691.07
938.51
895.22
1470.74
833.01
960.72
785.62
517.03
406.21
653.41
472.57
811.53
702.85
638.95
895.25
4101.43
1008.25
1062.80
1284.91
1102.84
945.54
914.69
880.85
700.55
668.80
696.43
903.46
1995.68
825.33
1110.90
710.30
1089.63
1027.24
870.45
827.62
870.46
975.97
1088.71
760.99
2702.44
567.09
600.91
482.63
491.80
477.40
772.60
670.92
550.73
668.24
917.76
779.00
967.56
1132.62
1101.96
959.14
923.25
1075.55
711.48
818.14
439.56
1220.89
702.66
1013.00
920.45
1327.65
1030.80
1172.49
813.19
1011.61
1002.02
904.50
987.81
934.67
1019.65
413.35
658.46
777.56
815.08
634.63
1158.74
764.93
900.24
812.68
821.23
804.13
912.43
954.91
900.10
905.46
1072.47
861.40
1280.32
1261.72
667.84
791.02
723.54
1041.44
1138.75
1284.38
1087.49
2642.90
1054.91
1209.41
979.93
1111.01
1147.84
1013.69
522.85
723.49
716.68
746.58
950.05
1108.92
851.60
981.67
1002.12
1188.20
1095.85
1138.10
1091.99
1050.35
983.35
987.79
1650.58
1032.89
918.73
1098.56
874.56
1227.84
587.90
918.63
863.81
1123.03
966.96
930.10
1319.84
891.80
909.58
1100.97
1037.56
970.09
763.42
869.07
1009.13
927.18
750.94
868.11
1930.43
1019.31
995.47
1168.83
1006.80
1106.58
1093.62
1254.55
1027.15
1175.78
856.55
1038.02
858.35
913.63
598.66
847.80
737.94
1280.75
1124.54
1025.24
934.24
977.18
922.65
988.84
1421.44
983.55
801.94
732.49
1026.18
980.71
1043.04
979.09
670.23
953.88
780.95
864.95
3637.95
1176.40
1222.95
1120.42
1137.94
1281.48
1240.60
1244.73
988.00
1098.53
1116.59
1101.80
1074.77
896.91
759.94
1096.72
952.66
894.57
1031.04
875.81
969.92
969.38
1058.31
1592.29
589.12
916.10
938.68
1002.16
582.50
972.66
785.81
866.15
770.95
815.54
829.96
2356.60
1200.35
1230.62
1248.31
1058.54
960.95
1083.77
1130.06
1042.18
738.11
1063.67
1620.95
1105.81
1348.69
1064.77
1019.66
1075.84
1117.87
1280.50
1011.72
1088.70
1138.65
744.25
753.90
823.18
532.76
598.97
434.53
760.69
566.19
837.08
828.29
933.67
878.80
1119.19
1338.57
1264.61
954.76
1233.34
967.13
1131.31
1082.57
1037.77
1306.83
1013.39
723.06
2434.83
991.09
1006.97
779.18
856.63
761.48
771.37
850.00
895.88
814.08
689.36
474.85
1020.75
1249.88
747.68
677.53
523.07
845.83
808.59
803.35
978.18
778.20
1104.56
929.72
1163.41
1393.98
1102.97
550.84
621.39
899.34
1008.55
695.44
1132.29
775.70
1250.58
805.54
932.51
969.69
1000.24
735.81
760.60
1109.87
1083.53
613.86
791.84
589.45
541.29
889.01
574.74
1262.99
696.58
813.06
712.05
848.91
1057.80
867.59
1155.13
1143.26
1277.32
973.22
1179.46
1260.92
1155.01
1191.93
1112.08
631.98
420.78
595.86
708.75
796.26
727.14
843.26
808.27
1044.40
984.40
939.19
483.00
539.26
685.59
1149.89
759.01
638.01
900.63
599.12
982.95
2141.52
1342.59
1047.20
1148.52
1141.47
1009.60
781.67
806.19
933.36
1026.09
672.31
836.98
2154.45
641.10
748.11
1061.40
857.99
772.46
796.59
717.39
850.89
873.13
941.76
943.57
877.40
702.15
780.83
342.90
487.74
402.91
750.92
535.00
938.30
885.61
915.78
780.26
877.54
992.58
837.58
815.98
925.61
744.02
577.53
759.04
368.60
607.34
773.57
775.10
759.99
1045.87
3353.75
685.90
859.37
794.45
824.15
740.98
868.83
909.46
480.54
451.84
607.39
438.59
548.51
781.96
706.22
809.65
890.03
1196.24
1014.00
1291.55
927.42
942.64
792.78
837.09
983.18
1509.53
790.12
1281.35
840.23
1035.84
682.51
726.36
826.41
809.79
730.48
666.34
894.32
2010.04
748.22
845.82
813.40
651.76
565.09
479.14
401.65
613.76
379.48
783.24
531.99
1053.47
1094.91
867.59
853.35
1075.90
985.11
1087.74
936.79
1284.67
814.02
937.91
678.77
812.79
970.60
701.85
514.99
904.76
1106.55
1229.71
906.92
864.92
963.07
769.86
933.38
839.00
1439.30
524.83
292.23
737.57
974.54
621.05
606.11
654.96
874.19
775.91
750.48
844.90
791.48
1016.00
952.03
1204.21
882.63
1161.72
949.15
1161.44
781.25
876.50
648.44
1020.81
779.79
1188.34
670.18
603.20
849.71
744.52
991.12
755.19
964.05
866.36
446.35
582.78
328.83
2028.13
755.04
844.43
558.57
942.65
993.01
1144.44
1023.53
1194.07
907.06
1181.61
1003.15
1647.62
1011.70
962.19
658.22
1208.22
947.29
1136.83
897.31
1087.62
932.06
979.21
880.14
822.24
888.40
885.46
815.94
711.31
879.46
334.47
432.25
571.50
464.09
451.33
463.20
800.67
651.90
818.53
787.01
933.88
879.93
1160.40
1115.59
1038.30
750.59
1046.39
524.46
704.15
697.10
749.17
868.95
641.22
543.66
918.13
793.66
1124.68
728.33
874.54
781.79
672.94
3207.80
1009.99
953.48
741.62
605.82
771.77
361.81
380.87
288.97
620.14
622.80
852.78
1074.41
1399.20
1265.24
1265.75
740.53
704.56
969.62
851.55
975.10
1286.04
1207.72
1256.44
846.33
1024.43
799.29
1180.36
928.09
737.87
959.87
956.46
909.88
873.66
1025.95
743.14
700.11
487.17
706.27
273.56
495.38
309.52
782.63
501.92
720.64
701.54
681.97
1096.09
918.94
1437.05
1487.46
1396.00
1185.62
792.61
591.02
710.06
487.14
1209.84
1418.22
1797.62
1579.88
1696.31
628.02
594.17
1265.44
957.52
1302.68
856.40
910.37
305.07
429.96
348.64
394.40
1072.34
991.47
1810.99
1753.21
1936.21
1084.87
1143.09
966.29
601.31
840.79
613.77
2275.68
685.56
380.62
522.77
341.95
746.19
529.83
729.03
490.65
979.49
978.25
786.22
579.37
726.55
838.54
717.99
865.46
815.24
691.55
408.80
665.83
282.26
637.46
726.90
668.21
549.18
1070.46
825.13
710.49
643.26
777.68
774.95
752.84
720.90
670.79
643.18
421.80
807.66
1826.65
807.91
758.68
1057.06
648.00
918.80
587.91
579.32
736.05
624.98
850.98
766.00
909.80
695.68
432.21
358.19
817.36
380.73
710.41
947.07
1240.12
1402.02
1351.64
1125.17
821.00
752.75
763.79
546.05
869.04
826.20
996.95
1034.07
628.09
1113.84
683.73
586.73
662.88
1108.72
1044.26
954.80
893.28
706.73
757.82
825.01
935.41
733.36
779.62
425.82
617.01
491.15
561.37
610.53
826.41
942.65
680.00
652.88
794.72
593.31
703.40
630.92
678.20
749.31
3061.62
945.50
730.12
821.92
530.08
831.80
306.43
632.27
733.70
822.44
560.67
740.17
536.71
1127.67
941.73
794.37
892.86
1014.88
844.08
758.84
448.67
856.62
780.61
674.00
491.34
705.61
698.37
678.09
628.93
584.55
752.87
853.96
773.13
1027.65
1008.93
934.50
515.56
307.94
1825.26
475.89
460.35
473.87
465.51
973.68
810.41
752.26
557.87
587.66
919.21
770.80
870.51
936.79
383.25
520.78
390.59
868.17
511.74
809.08
867.11
399.38
788.54
741.57
773.95
632.66
837.69
917.45
896.49
907.52
835.45
1466.13
1356.75
1863.33
1467.93
1717.57
1181.60
782.00
814.35
512.13
887.29
886.06
1420.23
836.40
965.27
893.25
889.34
412.94
428.57
495.79
575.44
1015.60
848.73
1169.30
536.04
759.63
763.58
972.12
928.88
1447.98
1224.91
1230.49
1675.68
1148.04
665.18
686.08
547.17
771.18
349.01
633.78
858.77
514.89
715.28
716.29
1869.73
672.75
974.93
833.46
818.82
848.38
768.38
523.83
460.69
463.41
410.45
292.49
450.14
693.85
814.07
562.21
668.94
912.17
878.92
1016.34
635.64
986.65
996.69
986.35
740.19
741.91
786.33
1072.80
652.03
928.65
509.58
889.29
937.28
729.65
548.48
631.40
773.39
626.76
2048.68
622.02
511.68
470.92
782.85
745.65
514.55
896.24
838.35
868.00
687.11
1051.24
629.57
904.74
720.81
635.05
787.43
789.81
875.98
442.59
654.75
462.29
518.58
711.56
579.46
587.08
715.53
871.26
850.19
641.34
833.64
721.09
723.83
769.41
784.96
749.76
445.84
596.37
2722.58
598.30
402.72
460.19
624.06
665.41
784.88
749.42
667.67
798.27
847.83
862.90
794.23
1414.13
564.51
586.30
496.12
1023.35
780.39
1107.87
767.34
1082.39
906.09
1146.35
777.93
1727.86
1376.55
1505.72
898.28
754.14
788.14
382.31
367.50
253.41
390.17
243.32
499.94
1903.83
948.74
937.30
922.01
822.74
904.82
871.77
886.76
883.20
794.93
681.16
408.77
434.98
897.34
873.49
593.71
624.37
403.75
686.97
682.83
577.90
698.65
758.00
723.98
742.02
831.71
1008.39
573.10
809.38
885.81
720.26
522.22
707.78
410.87
457.33
789.33
839.52
582.88
729.02
871.60
726.87
757.95
633.91
593.03
774.05
599.90
897.18
578.56
826.70
596.27
797.62
1870.34
1116.13
927.60
980.13
927.21
856.75
604.19
671.38
1090.92
758.29
811.61
334.95
2984.10
279.87
455.59
459.39
602.29
726.34
739.24
1184.25
870.74
1034.59
782.44
804.36
612.49
918.43
791.78
998.73
791.42
662.50
309.85
754.64
735.95
664.85
933.96
948.90
702.42
626.10
906.57
1021.08
820.22
780.25
847.21
397.31
659.27
428.63
321.60
680.18
477.42
778.15
2697.59
847.48
798.06
960.43
847.90
1005.89
895.49
594.75
747.55
467.61
456.02
484.89
829.90
1100.00
666.75
816.77
679.35
801.59
910.43
794.67
584.46
580.54
725.57
685.96
686.72
566.08
526.68
324.52
483.58
397.87
520.59
671.42
797.36
580.55
610.43
705.34
618.73
749.63
2680.39
991.84
832.76
903.09
730.62
987.94
685.34
705.86
454.25
958.62
1126.61
1006.14
869.00
914.84
755.43
498.21
712.91
621.85
776.23
573.23
766.87
597.55
561.25
488.56
304.52
958.43
932.31
1075.62
773.62
579.83
824.88
679.89
734.81
640.39
867.98
852.99
822.97
1047.85
1892.65
974.08
1023.58
957.98
731.05
634.17
605.41
726.54
810.94
853.45
609.88
611.42
2844.89
801.08
926.62
814.22
925.91
821.63
513.33
444.40
438.76
296.94
478.89
506.92
768.57
1145.76
747.60
597.04
776.44
911.12
811.77
990.78
1115.80
1148.82
1003.86
1076.36
720.07
1216.20
437.24
413.21
710.55
679.81
690.90
633.73
718.25
681.31
834.12
763.26
862.40
830.74
656.09
581.73
322.26
1000.37
953.18
1381.63
1175.01
931.95
746.11
843.68
1268.39
1010.68
1065.88
740.77
701.98
1366.32
1525.58
2010.89
1417.92
1451.70
724.61
363.67
591.23
1828.09
890.20
579.00
735.33
598.64
742.64
782.90
754.65
703.28
726.20
713.13
487.01
472.58
591.96
480.47
297.00
489.81
490.97
595.40
687.05
715.62
631.86
1008.83
873.54
1115.50
870.61
1128.99
680.05
901.93
652.12
876.56
516.55
725.51
629.82
835.64
896.61
1034.29
641.26
958.46
810.07
836.44
757.37
606.69
802.76
540.60
407.05
492.06
698.66
488.09
555.03
530.49
711.07
606.50
675.22
586.18
584.95
742.55
657.87
755.55
807.95
793.24
627.99
675.16
2385.48
634.43
513.65
771.40
689.97
823.14
673.19
694.23
647.00
841.07
771.47
754.67
802.56
1226.13
637.37
625.90
535.02
670.04
332.05
435.76
425.65
499.16
834.88
740.88
728.43
668.11
884.80
1099.10
936.47
1073.07
900.93
799.74
583.14
1226.38
1245.80
1479.88
982.65
901.38
722.15
724.59
770.69
528.82
697.66
599.73
920.13
651.45
763.82
625.86
709.10
363.72
1607.98
293.89
340.61
667.13
560.98
831.23
904.29
1062.92
892.06
1026.90
919.20
1010.78
770.16
733.01
643.67
225.85
648.88
235.06
369.57
769.74
826.38
609.13
823.46
740.81
701.07
741.29
886.60
749.86
778.50
877.88
759.17
723.12
540.03
467.01
295.45
596.15
602.08
407.64
1592.72
795.67
772.60
1133.31
1035.19
1275.20
1063.70
970.71
765.70
894.59
579.87
763.45
1550.03
1317.28
1051.16
1131.26
577.32
789.27
751.18
574.20
1044.81
951.46
998.00
698.06
1769.06
798.21
489.44
596.59
605.59
498.03
353.15
675.55
572.95
370.32
805.19
530.29
667.58
902.01
883.02
983.03
876.39
975.40
951.21
861.91
528.63
881.09
512.01
854.51
517.42
688.82
730.15
792.93
826.93
587.78
697.58
737.27
819.23
857.64
1032.70
1212.36
713.64
888.46
893.13
689.68
628.62
610.88
541.87
497.13
950.71
614.34
848.54
616.63
770.75
752.29
781.40
940.34
609.38
609.14
593.50
941.66
837.20
1057.67
876.33
1066.14
1183.63
885.14
696.99
1263.74
974.65
704.30
786.10
632.41
617.32
338.45
499.35
346.41
352.17
298.51
544.65
515.93
497.68
860.53
836.99
1151.37
1032.59
1220.32
1012.23
1022.33
1048.31
1091.83
792.62
551.46
535.66
766.35
719.38
854.60
668.27
1118.12
776.17
776.33
573.99
744.11
876.87
625.68
947.12
834.97
416.61
428.57
155.27
652.16
632.25
377.40
548.80
404.77
597.77
631.83
580.77
749.97
690.30
767.68
685.45
873.71
725.62
588.36
263.14
680.40
506.50
788.31
480.92
1011.10
932.32
1025.01
707.54
613.23
759.56
717.09
819.59
789.18
807.98
589.35
512.44
676.09
1151.34
423.50
588.81
617.54
693.62
810.53
768.39
686.97
752.20
690.46
744.62
859.48
835.16
1059.54
893.84
897.11
711.48
961.96
744.64
572.78
456.44
708.40
1124.44
1128.48
843.22
1398.44
695.92
652.96
1008.25
768.81
1003.89
407.76
514.93
336.22
433.01
254.40
628.07
468.95
441.07
865.56
771.76
1071.52
1040.89
1115.25
831.50
1114.69
1037.44
1153.97
615.18
362.53
493.75
646.85
481.37
561.06
569.72
726.72
848.63
667.16
614.08
760.46
927.32
956.31
1939.31
700.10
681.91
510.03
359.26
779.15
624.71
664.47
605.53
648.76
741.75
751.55
810.45
1098.59
973.13
940.75
805.25
1082.22
911.29
775.06
359.26
885.39
937.54
738.61
673.49
1924.24
883.02
713.96
596.40
679.42
680.72
850.16
858.10
682.70
846.67
630.84
262.18
398.69
699.18
807.01
466.12
601.23
624.79
524.82
684.49
588.08
638.44
699.68
805.68
773.56
698.49
1019.97
1097.40
1175.47
936.62
1275.14
1038.31
766.77
727.00
279.67
852.77
535.99
726.13
635.55
694.89
561.84
865.46
789.13
965.89
954.12
822.69
733.28
583.76
682.69
406.59
496.08
380.65
639.58
969.36
651.06
695.00
855.71
879.20
930.99
965.75
769.55
668.43
609.36
1651.70
858.97
971.84
805.31
682.63
874.37
769.71
1001.31
787.87
889.30
853.41
776.06
858.49
1077.23
685.60
389.38
595.70
217.46
493.76
465.93
585.86
538.37
579.30
715.79
609.39
677.46
793.82
984.64
1035.94
1012.07
1144.93
980.31
853.32
1142.82
749.55
829.23
711.26
1039.82
946.53
1052.87
948.94
761.14
799.56
825.10
684.91
727.13
1022.69
681.70
809.75
351.94
1015.60
444.70
513.26
729.59
624.89
716.53
723.51
753.69
803.87
1035.56
957.56
979.61
879.21
965.13
781.56
467.53
686.79
834.63
887.64
928.53
1076.27
766.53
822.63
798.36
731.00
628.88
883.59
780.14
918.63
941.11
697.73
422.98
577.67
270.61
537.94
348.20
600.41
490.14
1512.76
748.00
695.75
909.99
843.16
898.21
858.54
696.75
764.06
928.12
724.75
782.07
868.03
1166.50
761.19
762.86
887.09
1477.88
1554.06
1664.85
1155.94
1075.95
788.28
630.26
1161.18
1121.27
1191.70
746.99
553.66
309.47
481.97
593.03
815.14
391.01
943.41
735.42
825.99
881.69
1004.95
1066.53
1070.29
1149.26
999.90
1045.78
858.69
791.97
648.38
675.81
2372.71
903.85
856.16
787.37
806.80
508.43
777.77
671.06
844.31
664.58
760.90
773.49
620.55
949.05
392.33
364.41
708.46
553.63
376.08
565.17
694.72
673.10
813.77
1041.39
1402.96
1991.74
1820.17
1901.88
1040.88
804.59
755.24
341.11
372.01
566.72
581.09
521.56
734.29
853.43
723.92
758.85
1026.61
908.62
1083.86
771.01
806.31
534.91
254.83
490.26
262.21
648.52
1475.80
638.56
417.77
613.65
804.42
572.18
744.59
1051.64
803.59
856.58
773.13
922.56
667.96
1026.11
1070.45
1426.92
1451.67
1260.55
457.00
750.08
944.02
1023.11
1205.80
1185.36
2648.48
701.02
816.18
972.01
1341.38
1403.73
955.47
733.14
733.38
343.15
440.73
525.79
1747.88
707.35
671.78
838.04
1246.47
1149.61
991.63
1055.80
989.35
971.27
860.26
1243.21
1954.63
810.25
870.83
662.09
446.52
516.66
831.53
626.67
791.71
972.63
759.03
580.08
891.05
1002.74
441.81
675.88
609.68
482.52
567.34
514.78
835.51
704.05
883.82
792.41
880.65
1787.73
883.32
998.68
853.59
969.87
749.02
598.79
720.27
760.81
622.70
762.70
763.96
471.99
951.63
674.49
907.52
796.15
874.29
1027.16
1020.54
1032.55
882.16
1064.03
797.06
1040.89
1158.17
422.03
585.68
751.07
540.34
741.02
1107.71
643.16
779.09
1111.33
832.57
765.79
1884.66
1182.70
703.91
575.18
561.52
314.76
476.26
607.74
620.53
824.22
1120.38
1036.97
865.23
1006.40
843.41
1208.40
907.39
831.81
799.37
806.36
502.20
445.50
509.92
577.16
667.61
950.02
1069.86
1094.86
846.66
586.90
938.42
889.39
696.31
910.27
891.54
645.93
552.54
1696.47
417.72
236.48
715.60
1008.42
922.50
1235.89
921.68
567.60
696.57
753.74
909.43
743.40
911.75
959.93
635.32
932.61
436.05
322.19
380.66
252.77
784.23
811.31
678.93
635.12
2104.59
943.71
907.95
1039.31
903.63
979.04
705.66
432.93
947.73
825.93
632.84
978.93
746.89
1469.54
1102.44
1153.16
719.10
541.12
849.01
858.72
860.64
820.75
1041.20
515.86
387.50
785.42
565.76
234.38
783.35
495.54
420.86
620.31
613.16
755.86
817.39
1044.55
874.22
901.78
1123.81
1271.00
975.14
985.59
872.47
1260.51
1005.76
932.36
600.54
685.62
981.43
1058.56
745.55
577.66
917.04
871.84
873.89
791.59
908.98
576.75
286.18
370.34
718.26
279.88
1606.28
698.45
686.52
908.70
839.10
1027.34
1094.95
1284.09
1267.54
1358.61
1167.56
1074.18
1296.08
676.91
574.93
381.06
507.12
439.35
433.93
772.19
688.37
453.24
753.02
554.03
2029.73
867.54
887.93
1052.88
716.46
762.47
654.91
304.01
542.04
418.11
640.75
881.42
656.76
731.06
713.70
796.88
715.54
720.79
798.92
917.15
673.96
260.47
1002.14
1071.29
764.29
1395.02
534.38
612.28
793.29
899.14
781.96
685.14
1081.53
979.90
851.70
788.43
815.24
434.48
617.56
684.55
234.36
640.47
632.69
765.42
553.30
706.05
761.26
1124.41
1005.16
1045.74
1271.51
548.03
1254.99
1202.11
864.47
728.61
519.29
488.20
316.53
616.37
685.12
949.69
1642.33
849.86
661.08
804.75
723.45
743.64
641.81
798.58
837.08
292.07
539.85
318.69
436.81
423.77
305.41
479.98
725.06
625.03
759.11
544.90
1342.76
2291.85
2755.20
3162.12
2688.43
2323.23
669.79
738.03
2475.69
2419.27
1060.05
435.06
334.73
711.20
685.17
420.83
735.70
698.47
926.88
726.40
903.81
900.11
538.99
885.80
779.77
774.69
769.47
981.88
605.56
530.65
573.66
779.92
637.82
817.42
766.99
842.71
878.28
1009.93
741.70
372.80
915.51
720.09
1392.39
650.56
618.78
868.84
648.16
771.40
715.67
604.42
974.46
1254.28
1026.99
1039.99
961.99
1200.03
1333.90
1659.37
494.34
439.34
503.42
567.97
1035.32
1175.76
1211.54
690.16
1220.50
550.06
758.50
728.24
1013.25
1192.68
661.87
605.46
777.25
724.92
613.14
630.91
1479.71
813.73
1421.28
1229.36
596.74
708.56
782.04
656.50
972.64
797.29
1817.74
1843.23
1894.59
914.69
909.69
1373.06
1288.94
1199.78
693.36
572.43
1137.92
1508.93
728.87
756.21
861.27
936.21
951.31
1382.10
1194.13
1140.37
362.72
328.03
894.75
1121.27
754.67
935.92
920.30
925.22
724.13
879.06
703.52
685.78
791.61
682.15
543.01
892.57
922.85
560.84
1406.10
355.56
664.54
488.76
1052.38
1164.29
1282.30
1282.52
1069.68
992.99
843.01
906.52
1906.39
1003.49
905.57
1164.05
838.73
346.39
670.23
852.72
739.21
729.81
596.65
691.02
877.62
923.19
830.59
884.58
854.66
570.62
420.05
496.01
536.97
732.62
1115.34
808.76
502.36
1730.63
682.55
568.72
607.48
716.49
779.78
965.15
1257.23
1419.91
1336.26
1165.69
988.68
1634.08
611.99
365.20
740.04
671.04
642.46
670.37
633.86
902.23
856.77
931.22
859.19
764.87
671.19
542.10
757.30
540.24
590.22
742.91
619.86
771.57
894.12
828.83
656.31
538.35
1790.89
656.37
723.83
859.81
1012.93
639.51
721.87
231.88
401.16
275.06
546.79
817.81
862.72
1399.01
1030.61
1027.90
877.49
797.93
939.34
574.05
751.94
676.51
422.25
429.77
344.08
1487.18
402.54
618.64
854.67
1394.12
1885.78
1642.69
879.03
592.58
995.01
942.98
1177.92
1980.89
1107.54
462.09
600.31
942.31
794.04
663.04
930.00
1334.63
1314.74
1156.00
732.24
841.89
765.03
819.28
871.82
660.03
829.66
575.88
627.24
810.83
880.65
686.85
808.99
1000.56
853.20
792.70
727.01
588.20
1067.17
808.72
820.22
932.99
788.32
903.40
690.05
562.81
1397.70
729.52
552.79
907.22
795.01
1119.92
1180.30
1174.96
650.28
620.58
726.34
738.77
1841.45
795.45
889.76
497.99
670.56
417.71
336.93
361.53
322.96
510.81
690.72
781.12
641.55
1189.35
1369.48
2112.37
1944.71
2040.98
1776.89
1813.50
1548.71
1458.17
880.97
398.81
897.48
472.70
461.65
777.27
1040.23
1086.53
753.99
661.99
826.54
880.43
653.85
837.20
1587.67
498.73
568.50
596.41
748.84
529.90
504.69
559.47
611.27
779.83
659.20
603.45
790.08
888.88
657.97
617.95
778.21
475.02
575.31
1157.82
1170.18
1420.59
1211.73
1267.60
1296.38
1237.26
814.71
571.90
808.87
936.22
879.25
744.81
884.09
486.94
312.58
144.41
430.37
850.73
735.50
1208.66
1465.79
1979.39
2007.37
1914.98
1268.07
1141.02
764.28
753.65
813.23
699.35
531.16
557.92
770.14
303.73
478.89
590.75
591.56
585.93
831.70
728.96
745.28
1842.75
854.38
930.26
893.70
811.82
880.76
272.93
476.52
261.88
381.72
481.15
391.63
510.42
1082.50
730.15
837.63
859.45
1039.99
924.66
822.30
984.36
817.08
586.43
434.41
496.32
2918.76
566.84
692.51
1015.03
975.15
1307.86
935.98
661.77
707.88
837.27
775.89
774.00
838.37
890.74
394.92
352.05
174.39
322.21
274.41
591.63
771.97
539.62
1013.64
1011.53
1000.88
1004.69
828.78
721.62
836.56
708.65
993.12
1120.73
514.90
649.29
555.76
578.90
701.83
349.30
1879.30
950.79
656.44
532.02
741.13
761.13
786.21
860.27
951.33
873.77
638.33
811.08
739.29
1098.23
1165.73
908.22
490.68
918.36
997.83
712.00
689.64
803.74
737.99
868.62
854.09
2016.13
961.80
1184.42
1199.28
873.20
607.63
353.82
321.47
560.36
805.68
713.55
555.90
647.34
732.09
838.03
787.75
744.06
862.93
595.50
703.44
1035.91
854.82
1071.51
850.29
547.70
1986.31
819.73
830.46
675.99
808.64
991.75
872.77
1100.30
858.14
752.83
458.07
787.87
453.58
566.56
436.43
658.04
482.50
573.96
827.50
602.13
745.68
824.74
811.05
790.44
746.22
768.64
517.78
497.95
692.85
613.11
708.55
886.93
963.95
914.10
1173.58
813.52
709.28
766.11
1354.95
736.04
757.21
1044.91
1020.41
956.80
759.19
833.37
602.79
404.71
506.34
485.63
969.17
1082.81
980.93
893.53
934.71
813.99
707.72
684.64
763.42
521.31
468.19
312.56
398.18
1539.68
528.14
873.34
531.41
918.84
706.89
677.99
688.29
596.32
821.66
801.33
765.64
979.51
814.92
1000.23
990.05
1094.85
924.73
1223.04
891.65
998.98
958.97
1057.86
808.10
946.32
1356.04
832.00
822.79
844.21
863.28
330.02
583.60
501.34
255.53
467.21
778.49
340.43
784.00
672.27
706.55
656.15
848.25
1027.44
880.86
967.65
791.16
777.49
798.96
833.25
812.39
1700.13
392.36
670.45
616.32
1312.01
1847.27
2008.19
1465.69
815.07
682.00
883.51
834.74
1434.83
669.02
399.65
501.39
780.70
543.41
602.58
869.06
380.90
750.12
876.98
943.01
1057.36
1121.74
1149.80
1206.89
1523.83
1030.98
793.76
1013.76
948.32
1010.33
643.34
790.39
1829.19
1037.89
740.55
800.55
612.38
726.02
828.04
649.22
896.54
915.75
782.47
632.73
721.65
451.85
445.28
691.06
983.97
488.40
684.71
945.83
819.52
777.97
996.31
910.36
934.61
828.44
1002.49
907.89
681.36
797.24
818.33
807.34
611.95
531.74
744.63
864.89
1024.80
600.23
2276.35
657.45
883.27
700.88
757.40
788.84
405.93
329.87
429.02
344.94
634.76
640.90
805.86
856.28
914.57
793.94
757.87
774.35
815.69
866.75
858.53
903.08
877.26
1020.46
834.19
365.97
656.93
867.24
596.77
578.24
626.19
817.59
709.39
881.42
1074.76
983.74
965.56
972.90
1865.06
712.07
879.99
729.46
410.86
263.97
780.16
368.50
588.01
733.60
959.06
1096.89
1401.44
2042.85
2083.83
1394.97
1029.77
820.24
533.70
356.52
507.12
649.00
379.71
574.03
564.92
955.72
895.90
761.46
611.55
931.82
759.43
878.29
877.43
975.69
705.24
677.62
401.27
1599.03
289.82
551.62
627.88
598.36
646.73
845.49
861.20
873.52
1020.52
872.90
850.47
989.99
950.55
717.99
778.93
711.99
873.46
910.49
659.81
442.51
692.81
1104.08
846.11
669.92
931.75
730.15
819.90
873.34
810.69
808.16
731.17
669.88
243.31
586.37
552.22
550.08
446.15
1775.19
645.23
691.80
1009.91
1730.13
2339.72
1727.30
896.27
910.28
763.49
465.83
439.13
1648.97
483.03
894.13
958.08
867.03
1414.98
1462.60
1388.40
1148.22
1122.69
853.32
667.63
950.42
807.50
903.32
547.32
572.51
432.52
212.49
400.86
877.20
336.19
914.54
721.41
586.56
984.01
972.05
1002.93
1087.37
1087.78
751.81
568.28
806.20
726.95
554.39
1198.66
1110.00
1426.79
1346.34
1361.36
1410.30
1323.89
1276.67
769.89
941.96
900.42
969.18
761.58
1119.49
744.58
1095.73
886.66
934.66
627.43
607.01
833.10
680.71
919.49
907.13
1235.54
2028.15
1595.79
1763.10
1445.21
951.93
410.30
754.67
1029.68
850.18
508.57
688.51
1142.80
2331.46
2549.24
1735.61
1285.51
849.43
791.84
1291.91
971.97
1327.59
1128.19
699.02
1412.11
444.24
379.81
456.00
558.66
706.01
681.25
781.02
645.77
1167.25
1137.55
930.70
2274.65
916.19
891.00
548.30
942.15
372.94
627.06
1168.36
1066.60
896.07
1054.77
937.29
2361.25
684.47
953.98
1020.96
887.22
1092.20
817.09
424.71
394.87
1039.54
672.03
598.68
786.59
774.84
392.67
852.17
745.51
662.81
839.88
1040.72
974.25
990.14
949.86
944.24
783.81
955.09
788.95
591.01
597.37
539.92
672.05
704.02
954.27
797.09
538.27
821.09
790.89
865.75
976.35
799.23
674.38
451.03
663.51
363.63
565.56
866.26
1087.98
840.42
1100.07
867.42
2480.45
1052.60
1139.38
1019.95
862.99
935.18
1184.48
915.32
1018.78
705.20
659.48
880.77
1155.22
704.58
354.69
836.06
836.80
747.77
998.59
1000.36
1069.87
1227.01
1762.63
1170.68
1467.32
669.45
423.77
684.62
483.28
713.33
693.35
1042.55
764.45
900.88
564.76
747.43
3139.54
699.20
855.33
899.28
895.53
787.78
715.85
293.50
501.95
672.70
874.61
804.05
824.98
1180.83
1032.11
1082.34
1011.34
1014.94
818.33
893.48
859.92
780.26
571.37
588.81
412.05
3105.27
415.30
741.21
463.60
860.61
552.23
749.51
887.14
829.62
914.24
726.10
822.28
890.82
945.91
749.00
494.68
366.03
633.00
769.28
939.14
726.54
976.74
772.85
568.69
786.58
846.00
984.72
754.65
904.22
642.34
365.65
492.38
489.48
416.42
447.79
468.50
739.98
814.11
3100.98
831.30
735.31
870.70
800.95
802.97
871.20
935.82
611.60
883.25
416.21
1003.07
550.91
1420.45
756.02
841.15
1016.30
1173.62
848.23
664.63
813.90
722.98
792.37
874.62
768.11
1857.74
541.41
776.13
668.16
909.61
758.68
731.46
438.98
804.72
934.44
751.91
833.43
758.95
1187.70
954.96
1061.34
1050.51
919.89
976.57
1141.20
1032.64
745.37
776.12
849.76
1123.33
966.31
821.79
675.93
770.07
881.26
884.82
920.84
1114.75
985.99
621.75
1024.99
825.60
1408.36
572.36
808.07
1006.89
1020.66
875.39
1015.89
827.65
971.53
955.96
896.09
878.60
3177.39
579.65
449.35
800.05
838.55
542.96
594.95
725.47
681.11
856.82
807.80
686.71
895.48
1448.38
641.78
986.54
847.56
758.05
424.23
614.45
702.74
672.38
523.50
1047.12
851.00
1101.50
901.07
870.46
786.65
891.44
736.77
744.04
862.41
659.09
673.77
617.70
749.77
382.53
1695.11
844.34
1231.05
1989.24
1761.27
1414.61
700.28
665.77
1356.23
1308.73
1267.02
1260.59
882.01
658.90
697.79
684.76
624.86
364.36
437.28
657.10
386.87
769.76
917.92
945.89
1505.03
1300.26
1030.89
863.59
815.97
867.67
537.49
358.34
413.13
697.06
763.66
775.66
2915.76
1177.77
1071.22
1237.65
799.26
1062.71
916.79
1127.06
1066.36
1056.68
811.12
505.84
1447.93
769.54
865.62
722.80
775.69
348.99
836.20
611.08
730.55
659.47
724.10
796.07
3130.22
760.49
936.71
602.07
718.34
905.47
505.44
801.44
726.96
846.56
954.46
891.88
929.82
1069.73
809.15
733.57
824.90
1024.13
947.90
1106.66
529.99
562.96
711.57
326.86
366.43
1915.12
490.29
722.51
831.30
858.42
941.50
1021.77
850.54
747.69
785.88
843.68
470.77
840.43
844.50
1064.22
750.24
629.45
1015.29
745.18
800.77
813.91
678.05
573.13
823.10
665.98
2053.17
670.69
888.56
390.16
417.14
586.72
456.16
303.19
744.52
841.09
642.30
805.32
684.88
797.86
870.02
819.58
717.80
840.58
802.65
1102.20
718.40
561.84
602.61
861.71
599.83
2663.70
1182.44
1425.87
967.95
706.78
777.28
736.81
834.94
721.57
783.00
894.56
553.48
343.44
768.53
878.83
619.00
458.55
655.20
310.99
973.32
866.15
727.61
711.69
947.34
1066.65
3000.78
1004.39
1014.89
922.94
584.06
983.52
793.15
1043.47
929.43
1123.84
1204.53
1113.22
2199.90
771.42
965.42
906.38
934.27
936.67
1062.40
900.14
514.80
721.09
427.89
475.89
2929.06
692.69
822.40
908.64
776.04
912.67
837.75
900.21
877.78
833.02
814.23
893.77
672.52
941.14
412.18
772.06
1295.81
982.73
850.75
889.38
703.45
576.83
561.77
750.01
871.86
774.83
940.39
1095.20
1006.44
621.78
486.14
615.17
852.27
1142.91
647.04
458.31
565.86
675.25
1154.73
715.45
757.34
950.66
913.07
1172.22
1242.90
1403.70
1327.99
1255.01
1009.82
732.91
727.76
660.16
860.87
748.10
870.10
833.80
737.22
784.41
999.88
947.00
1051.38
902.91
1353.44
397.57
260.28
845.29
701.59
411.68
895.37
603.74
671.05
685.27
767.07
1081.04
1201.11
1226.82
1055.48
1044.23
1022.78
589.76
641.04
589.53
423.77
629.41
550.99
816.05
2863.28
1053.32
1015.87
705.35
816.75
861.27
806.58
901.11
971.82
937.02
393.40
456.21
387.90
694.86
819.24
634.18
749.91
525.65
731.15
874.05
916.03
933.79
892.64
1034.53
1093.27
1103.19
778.80
771.03
609.36
725.95
867.84
647.75
1186.49
655.33
900.24
1138.23
715.77
766.65
978.31
870.93
848.60
942.40
965.57
616.83
325.30
872.90
614.81
834.05
1026.90
657.44
3213.88
865.00
814.66
692.69
706.08
946.45
785.52
921.52
814.08
884.91
698.48
711.83
475.29
1004.08
743.46
762.54
656.37
956.09
759.74
756.82
727.11
842.28
993.54
1037.78
832.83
882.12
998.05
525.52
618.67
345.27
405.59
571.19
775.00
582.97
923.31
721.30
892.41
739.05
921.07
1129.40
845.32
1100.76
763.00
485.70
257.82
798.53
855.70
748.19
721.76
758.07
888.96
1628.56
1097.52
610.84
840.28
914.01
987.45
877.96
1069.38
1025.64
665.10
727.57
556.82
2003.43
639.46
800.74
512.66
657.51
940.14
740.54
642.21
805.88
926.38
684.52
929.24
889.21
1006.62
875.78
754.54
872.24
741.36
895.52
805.02
695.14
902.93
945.61
797.47
980.61
1119.39
1118.67
890.07
966.82
827.89
629.41
516.95
355.49
951.81
650.10
935.48
612.52
646.07
1372.41
819.36
1049.85
1267.86
1175.74
897.52
897.64
1018.53
1066.93
812.36
1147.62
1182.07
1774.77
1727.19
1620.82
1251.48
1189.90
988.02
846.08
833.57
842.14
1018.64
882.21
1335.10
1244.51
1398.22
1572.51
1785.80
1210.60
859.71
449.29
587.40
544.44
883.47
2942.65
912.57
1043.01
1013.63
1049.15
993.63
1177.82
811.18
972.99
874.17
921.64
869.50
2045.38
912.61
702.59
597.47
1101.75
1011.98
913.97
949.49
1059.92
1004.49
661.75
787.40
1890.95
523.26
422.02
463.24
739.15
593.88
648.88
547.93
577.81
639.80
603.69
752.37
719.95
975.43
736.29
699.80
679.48
549.95
477.02
495.88
917.96
737.50
445.28
739.89
628.69
770.40
1099.42
832.34
993.48
1137.52
897.62
802.45
1003.28
947.53
698.53
515.16
783.56
694.50
1041.37
480.92
671.30
460.86
793.85
851.69
689.50
698.10
879.73
820.89
804.92
870.73
1183.28
843.11
1044.52
758.00
866.15
1169.55
896.92
629.37
955.53
770.22
797.08
647.52
824.75
1272.88
786.01
793.38
836.03
700.18
401.02
376.63
609.61
625.07
540.64
603.91
504.40
720.98
825.17
900.18
966.27
1004.11
981.24
764.93
771.13
1011.09
672.12
846.17
1022.08
654.61
1950.39
868.18
961.61
669.57
994.68
739.93
762.36
759.08
884.60
845.40
886.85
960.74
891.04
681.15
306.54
613.62
298.51
504.88
717.81
590.63
595.03
746.43
621.53
617.27
594.80
883.86
898.19
780.81
871.15
643.02
644.03
502.29
497.28
332.39
934.41
800.52
464.78
769.42
2815.09
1020.21
941.93
992.73
987.40
891.34
923.72
837.61
404.57
222.84
557.85
558.18
543.53
657.55
389.61
503.33
679.92
733.91
701.20
822.37
