374.52
373.23
343.75
460.51
411.14
455.71
822.55
915.91
752.02
761.87
651.78
746.75
745.67
1918.91
517.54
538.33
532.86
580.04
651.92
759.95
962.68
905.20
570.16
391.28
490.60
395.14
790.13
904.49
998.79
965.19
850.31
791.32
484.02
430.90
327.13
466.57
440.66
385.09
450.34
651.26
518.11
509.91
467.34
540.14
457.04
606.04
726.81
688.30
653.69
657.28
575.36
2354.81
705.37
598.85
508.96
524.63
550.92
571.57
495.26
634.41
550.89
673.40
683.89
738.37
1425.42
931.94
863.18
592.94
446.25
514.34
442.36
570.93
628.68
717.34
722.56
783.88
665.56
854.72
703.07
757.55
826.16
783.54
580.75
425.77
429.65
378.35
507.28
635.74
865.75
2433.71
856.77
693.65
394.59
358.78
440.86
649.10
974.13
765.88
388.56
461.60
704.47
843.97
1452.19
999.82
758.05
661.96
689.28
943.86
1146.36
1285.60
648.30
580.55
1099.05
630.08
1189.99
744.21
774.25
674.33
750.50
681.35
489.00
429.09
489.14
405.45
376.99
392.24
835.16
1293.58
1003.56
561.49
319.08
394.47
553.15
693.03
860.31
1026.45
898.06
735.21
726.28
1898.12
437.23
389.23
403.72
570.12
443.69
437.30
462.08
585.03
567.78
684.43
968.73
1253.98
1385.32
924.89
505.55
579.05
670.99
375.51
432.74
808.05
1020.08
935.58
763.84
702.75
1909.51
821.43
827.42
1013.02
1140.83
677.30
480.10
487.74
336.04
602.16
825.15
545.78
361.04
426.58
756.39
591.65
359.57
375.93
485.78
442.57
464.98
534.98
583.63
602.50
627.01
2128.14
574.28
591.30
942.19
1449.95
1499.47
1399.71
1172.72
643.44
574.31
591.40
517.75
1963.65
709.22
721.94
659.92
564.94
343.41
466.26
593.13
647.04
428.27
443.03
481.04
488.75
700.12
560.61
465.22
447.42
531.10
640.12
587.17
795.98
788.26
780.51
639.21
460.47
431.08
621.15
560.24
722.35
739.35
657.54
472.84
577.15
483.66
508.89
576.92
766.44
712.47
2087.28
567.15
562.66
710.08
942.09
1055.35
952.37
800.19
535.24
465.14
475.50
445.10
436.09
664.75
458.36
422.92
528.47
510.40
452.90
504.33
466.96
541.65
573.38
622.21
592.04
624.59
834.38
649.17
655.04
642.33
753.84
811.04
828.88
551.40
431.31
383.72
352.12
446.08
2018.17
848.13
718.72
605.69
576.21
601.48
667.57
747.38
758.84
675.06
495.75
360.09
564.83
1276.04
696.02
604.66
579.66
500.51
546.34
626.59
613.69
450.31
390.00
433.34
513.67
667.83
907.39
845.96
1248.34
1472.82
1524.03
967.18
409.38
1071.77
774.13
386.84
568.03
588.44
664.73
578.57
512.17
589.67
697.83
696.84
715.33
557.65
571.66
517.96
463.17
464.82
3967.61
514.75
475.07
517.91
519.68
591.37
588.93
705.57
826.71
847.50
726.12
501.80
412.22
1109.99
444.88
452.99
495.53
575.34
520.24
428.32
529.29
449.80
549.64
545.58
629.11
621.98
672.70
655.64
681.21
681.37
826.36
558.93
460.51
426.94
682.91
867.28
897.30
690.95
3730.56
669.41
632.88
606.42
562.30
494.60
495.76
516.90
416.50
389.58
441.95
498.16
575.55
1192.23
616.66
584.68
395.12
403.13
587.71
876.55
828.78
750.82
681.76
572.76
476.52
498.15
784.79
626.99
760.40
557.15
564.03
461.63
677.07
723.53
678.28
598.94
463.88
450.43
3812.73
540.48
571.69
596.42
623.11
587.59
689.87
669.69
559.78
554.77
616.48
585.20
648.50
1218.59
607.67
513.86
591.63
638.91
702.52
633.94
669.41
727.97
875.45
912.06
988.66
914.39
905.42
622.97
400.04
379.79
379.30
365.37
487.75
387.11
563.28
570.96
834.00
800.91
3821.46
530.17
380.09
569.93
669.22
555.48
398.13
563.11
772.61
945.51
1255.60
1365.30
1319.87
1083.89
576.55
401.09
456.29
522.60
642.40
681.42
591.13
400.74
445.55
482.37
381.94
1018.59
534.51
664.90
719.02
755.17
642.39
541.59
475.40
432.17
627.43
853.26
1033.76
996.88
1082.19
745.64
519.26
419.63
393.59
403.20
420.47
392.80
514.88
596.67
562.10
602.06
1977.84
635.50
648.37
584.92
673.66
743.21
688.15
611.52
557.84
476.72
477.22
529.52
640.77
678.87
626.67
446.04
486.90
402.68
551.98
504.22
667.38
686.67
632.47
583.31
537.26
624.30
653.66
577.89
580.23
496.76
443.09
498.27
752.67
778.07
638.28
526.34
544.20
508.28
3908.61
557.31
616.72
610.09
620.37
535.63
600.45
449.50
454.30
490.86
610.66
592.63
634.35
1305.81
602.49
595.75
566.47
647.50
627.41
553.92
728.46
791.67
719.68
512.34
499.94
555.47
642.16
457.86
433.96
442.52
446.24
608.37
684.52
675.66
687.88
576.41
579.24
541.63
3799.01
668.35
717.41
840.70
854.48
789.45
826.24
779.88
846.81
764.84
661.67
596.25
571.31
1221.49
619.23
704.63
775.18
631.99
425.56
577.48
432.58
422.97
381.93
474.36
451.70
528.83
667.82
603.59
652.29
561.88
607.16
496.44
482.56
498.01
563.41
494.43
528.15
500.98
3909.30
503.00
556.31
679.33
745.61
727.05
664.39
672.32
674.16
512.17
515.51
604.80
939.27
1577.81
1341.13
1203.95
1123.49
668.02
421.08
537.30
763.59
776.45
468.38
410.67
485.66
1429.23
803.93
557.40
549.08
779.03
363.45
628.97
1002.34
983.70
922.46
682.41
636.70
1358.03
683.35
601.13
555.41
565.93
642.16
703.03
579.93
533.32
599.77
570.64
630.82
515.72
1245.08
582.22
585.54
579.91
509.84
495.50
507.20
496.30
486.23
473.87
558.32
556.27
642.59
704.01
631.92
603.01
674.86
664.77
646.68
604.77
544.20
384.86
567.81
623.58
748.11
1471.63
1032.24
950.30
1012.44
969.08
619.16
439.68
466.41
469.57
592.97
574.62
787.79
588.75
728.56
546.99
628.98
659.85
744.63
676.92
715.09
497.92
490.04
384.11
340.10
343.04
432.33
630.26
508.31
406.93
515.10
544.42
702.85
696.40
794.27
785.12
513.75
348.76
456.17
1414.62
819.10
826.58
649.01
518.68
571.07
514.98
498.68
622.52
674.03
595.11
509.96
375.72
1117.52
452.80
403.06
346.65
589.09
857.33
770.20
495.91
361.86
494.95
471.82
741.34
789.18
918.84
753.30
634.95
700.46
684.83
794.01
792.72
825.58
692.46
653.44
627.04
755.71
1355.22
526.01
488.28
672.21
426.83
559.60
524.35
595.31
490.06
528.76
565.46
582.08
791.98
1379.30
681.73
579.51
609.61
699.52
650.40
640.80
591.41
634.13
631.78
814.42
834.06
750.75
618.73
507.02
461.71
497.45
496.39
636.75
605.05
623.62
787.58
804.16
808.56
794.13
1371.06
630.84
582.52
462.98
449.33
496.93
500.40
500.68
356.64
381.41
376.19
419.95
410.88
1183.76
560.95
650.59
626.90
694.10
697.57
655.58
666.33
473.99
396.46
472.11
503.17
665.68
763.59
672.62
644.19
634.41
637.06
701.10
564.49
600.91
560.24
563.04
509.26
546.35
1356.15
728.06
581.47
599.30
560.40
590.46
557.84
567.11
557.40
639.85
615.18
566.51
593.51
1328.45
685.21
737.33
625.26
609.59
532.59
498.55
539.55
548.03
520.71
410.95
605.11
713.24
932.90
709.31
582.03
449.67
461.65
505.30
596.74
606.28
651.80
706.12
609.98
618.42
1394.57
574.28
511.85
630.69
681.09
621.90
673.56
647.35
621.71
649.88
615.52
605.96
656.65
1456.16
642.78
628.00
502.48
539.29
529.77
673.45
727.18
844.74
766.49
732.44
629.82
514.93
520.35
419.69
408.31
450.94
479.14
526.53
639.44
866.90
807.61
493.46
749.42
959.31
1337.68
764.87
1001.17
937.25
902.33
866.58
643.53
521.68
494.34
598.05
571.38
552.35
515.75
1314.82
592.07
563.55
373.69
399.68
497.20
445.73
422.31
427.49
547.94
659.00
651.09
726.35
816.96
820.10
801.60
904.06
730.06
549.51
392.75
592.63
648.97
659.83
649.07
544.81
1348.17
493.21
358.59
463.12
609.10
504.23
470.52
503.27
345.42
493.92
620.27
569.15
526.49
1347.31
687.55
726.33
818.11
720.65
469.65
418.23
469.87
634.36
706.83
664.34
576.07
618.38
729.99
523.07
564.80
886.22
875.51
1098.39
1063.80
642.54
394.15
376.04
391.80
604.59
1358.16
640.07
583.36
733.37
712.70
668.15
643.61
663.46
540.87
614.99
520.15
564.06
428.25
548.76
433.62
484.82
442.13
418.28
589.78
672.14
678.84
836.67
670.65
532.25
488.70
3514.57
684.04
636.18
535.51
613.80
516.42
522.66
514.79
582.10
625.51
705.29
659.54
648.39
1404.59
712.34
570.32
504.96
489.81
532.80
415.09
539.18
433.53
599.23
554.98
675.26
604.96
664.53
558.85
629.48
610.30
576.63
555.51
585.23
576.54
534.85
518.73
530.52
649.94
3451.40
696.05
702.95
781.80
785.73
717.89
644.18
526.64
626.12
644.12
811.07
719.20
613.25
1224.40
416.87
348.92
366.63
375.78
433.70
591.92
736.00
702.51
666.53
713.57
666.25
575.02
780.51
618.39
697.15
632.00
619.22
539.84
622.79
628.91
604.54
609.09
594.44
541.35
3550.48
612.01
536.95
516.96
523.37
544.34
561.34
494.53
539.84
611.90
713.77
686.44
651.66
1314.00
512.87
399.31
426.85
461.53
542.28
664.98
718.19
690.43
720.82
607.07
642.28
602.19
742.01
710.91
715.60
883.34
895.33
855.94
715.69
560.22
441.02
443.05
452.82
422.85
3729.70
489.38
594.95
553.10
612.50
576.07
489.81
450.23
483.59
448.64
650.54
557.23
511.12
1182.77
546.75
534.95
614.23
492.38
571.50
589.00
632.22
625.09
701.01
600.12
604.04
591.25
771.45
666.48
703.76
713.17
648.14
555.86
455.32
407.03
554.74
476.61
491.84
489.16
3492.70
675.08
727.16
618.49
658.96
631.64
742.12
791.49
858.52
853.46
877.66
969.05
1087.01
1528.13
642.99
419.76
433.52
391.27
423.66
440.71
452.99
457.79
517.78
411.00
440.90
3760.32
594.38
556.80
644.52
810.05
921.16
797.97
662.16
610.87
655.48
682.01
739.31
539.80
1301.75
451.41
447.81
543.52
572.46
409.03
513.49
472.22
393.34
479.45
462.30
414.10
450.22
558.38
488.74
502.58
502.77
406.48
441.21
472.55
518.56
552.01
670.58
698.01
775.97
3461.12
686.16
510.36
510.74
459.50
507.03
517.02
498.41
558.40
607.77
579.44
635.11
674.60
1421.93
796.53
754.43
611.69
644.75
556.07
621.16
467.35
547.11
462.65
522.11
591.06
479.49
715.13
601.99
667.67
673.93
499.25
571.42
543.21
636.53
644.69
617.66
708.72
671.04
3445.47
746.38
615.50
564.21
545.06
559.57
557.19
526.31
627.16
638.12
622.97
642.10
512.70
1361.87
572.58
480.53
442.45
439.19
506.22
650.98
894.04
844.73
840.32
835.40
711.46
628.49
561.12
446.26
466.17
522.51
469.65
480.04
478.48
534.13
479.08
527.77
481.14
538.05
3537.76
734.32
736.58
901.52
868.50
776.14
570.59
438.51
558.48
373.65
602.91
674.05
664.25
1464.02
679.48
780.65
847.06
929.32
945.51
750.41
558.75
546.66
520.65
444.89
434.54
448.53
538.19
401.65
347.40
419.33
432.33
403.43
419.19
446.63
518.11
626.48
591.61
662.40
3483.57
845.02
748.92
787.27
788.12
941.18
967.60
1120.88
849.14
549.24
547.89
863.08
536.95
677.08
504.13
468.88
479.02
439.69
489.67
511.40
543.72
565.44
514.15
471.38
494.35
544.46
713.33
666.09
518.56
512.64
648.65
785.37
815.51
804.69
730.95
675.75
629.74
725.42
3273.26
664.69
538.24
446.61
463.47
537.65
597.66
721.35
633.67
565.33
467.92
508.71
366.03
1298.40
488.17
542.70
567.84
572.65
534.68
669.81
626.95
690.80
726.13
688.61
589.04
578.04
643.97
506.67
545.44
791.84
872.47
907.21
657.97
569.28
447.48
482.84
371.99
444.58
3439.46
553.82
634.13
560.54
615.10
570.71
596.49
651.46
647.35
641.28
576.39
568.68
441.07
1487.61
545.19
570.14
635.05
733.32
580.46
613.01
413.65
399.17
551.60
641.70
608.82
618.33
652.74
522.55
543.88
531.15
624.58
666.73
393.85
488.97
589.51
624.71
519.84
556.90
3282.12
721.53
759.53
646.20
659.16
665.47
543.99
600.32
501.56
588.90
484.40
554.16
451.18
1314.28
599.28
601.56
612.59
625.52
734.27
821.55
726.57
626.17
458.21
430.97
445.28
651.11
867.06
925.08
730.86
771.55
742.90
582.50
448.15
619.91
736.33
795.16
619.82
432.45
3618.78
482.88
579.49
694.78
690.06
834.96
831.06
785.29
581.58
484.18
420.65
540.66
683.57
1394.66
715.27
661.06
547.01
536.98
477.88
566.73
646.42
685.97
557.92
457.76
506.91
540.26
625.14
536.97
519.28
570.92
500.70
552.55
506.14
513.04
552.61
541.58
470.28
511.95
3425.50
653.30
537.97
602.08
676.50
728.84
774.69
753.44
669.34
629.09
737.74
834.22
593.42
1375.14
511.76
466.73
500.76
883.06
952.90
686.85
541.90
589.96
474.61
621.69
555.56
446.37
597.61
524.94
489.71
443.41
437.23
419.70
495.40
445.16
456.96
480.69
411.22
505.81
3397.87
578.27
665.31
715.09
636.65
788.64
840.62
990.48
1118.50
1232.83
1146.66
846.08
571.87
512.98
774.31
1122.43
882.37
488.70
417.98
603.29
786.75
800.77
577.06
531.27
565.21
1437.04
638.48
670.45
443.69
657.18
390.88
450.25
616.41
580.09
651.40
683.30
709.62
717.13
716.52
660.32
688.58
603.62
585.35
630.57
551.43
609.24
526.66
433.98
489.73
533.57
3278.59
628.87
602.59
630.01
638.93
631.48
669.87
684.62
508.14
471.23
461.45
550.60
569.27
1497.04
625.55
550.85
513.70
542.28
558.46
652.95
719.65
676.20
590.80
614.70
657.87
678.50
817.71
704.44
631.79
763.13
899.40
751.35
602.52
580.68
576.48
555.70
472.56
535.98
3133.01
570.83
568.99
593.18
601.06
677.92
558.78
552.70
436.78
430.14
411.81
457.54
517.73
1475.45
669.13
690.14
752.90
818.45
838.83
776.21
654.58
624.87
465.81
521.32
491.20
530.42
691.23
638.48
521.02
502.54
402.85
524.65
535.69
570.83
505.38
650.35
557.23
501.42
3285.24
564.44
569.16
470.18
596.86
644.49
566.03
561.34
619.89
652.23
704.39
687.99
657.26
1455.84
681.47
657.48
641.52
714.08
631.16
702.74
644.26
602.01
505.91
499.25
466.92
564.47
634.00
616.72
615.96
618.97
553.96
599.63
487.61
479.55
453.46
426.03
455.87
496.19
3170.68
528.81
578.32
618.11
565.99
567.00
592.39
624.93
657.13
677.30
557.24
436.67
426.63
1296.84
567.61
502.17
518.13
620.63
710.13
721.20
729.98
635.56
500.14
670.49
665.42
655.53
830.74
669.76
596.41
587.88
523.37
453.68
532.12
641.72
642.01
741.36
652.08
544.37
3122.05
707.05
797.98
903.53
851.74
710.45
564.05
417.67
552.12
647.55
586.27
434.93
447.10
1446.05
778.30
837.67
822.96
716.78
532.07
504.28
463.90
532.23
414.17
477.66
590.37
643.68
726.60
602.41
467.79
446.02
435.89
477.71
407.65
526.53
500.73
608.97
661.10
660.48
3199.76
610.22
589.39
666.00
673.55
654.20
688.31
781.30
799.15
707.85
476.33
444.18
461.72
1428.66
733.90
773.54
645.69
597.17
620.83
543.67
513.96
520.37
489.32
510.72
473.36
629.64
757.60
731.71
742.80
627.24
653.21
688.67
648.00
657.55
713.40
708.45
758.92
739.68
3051.22
816.15
589.20
514.46
451.12
444.79
391.66
604.00
550.75
420.05
468.98
467.93
517.65
1437.24
634.30
678.15
597.25
617.84
598.47
724.64
618.12
571.72
533.56
598.02
621.43
779.31
902.17
820.04
702.52
500.33
541.11
598.04
510.14
562.57
559.13
590.05
582.47
539.83
3108.50
560.33
640.20
603.68
574.49
752.78
845.36
896.87
1006.79
1225.15
907.75
639.57
610.80
640.47
423.80
879.03
960.71
505.40
491.27
621.15
721.29
828.67
532.51
481.06
404.44
3182.24
526.90
593.65
630.77
661.00
645.70
633.55
645.65
627.30
665.56
546.30
390.15
506.31
1077.11
600.76
673.39
714.32
645.48
620.10
622.38
556.06
572.16
574.10
557.99
575.85
581.11
755.71
538.19
525.86
609.46
741.39
930.56
979.34
841.98
717.28
485.87
472.94
489.77
3308.01
483.13
654.25
661.05
710.83
719.54
691.73
633.11
621.51
573.54
458.13
403.20
470.72
1073.06
587.46
551.27
585.26
639.01
721.64
684.92
623.16
564.75
578.99
574.00
608.46
533.95
672.25
555.11
585.09
588.03
467.83
441.61
414.88
500.66
679.77
693.10
680.89
691.48
3093.24
632.69
674.25
613.94
626.96
659.81
689.24
649.82
799.27
639.02
759.63
714.53
726.46
1216.11
561.86
422.19
466.25
516.28
551.95
529.09
583.59
417.51
463.76
490.20
526.56
517.71
691.72
697.58
677.33
846.06
811.75
664.48
592.63
544.96
562.45
613.31
590.49
670.90
2995.27
738.22
653.12
632.62
681.72
808.74
840.17
822.96
843.61
850.70
824.22
756.84
618.85
1033.53
852.51
1174.36
658.53
394.21
616.66
630.27
652.36
564.37
574.00
447.68
511.71
562.74
799.39
748.98
697.70
522.38
551.64
489.85
464.30
624.41
522.97
499.03
565.85
538.39
2974.48
701.10
661.37
559.98
604.88
538.52
558.83
536.16
543.45
619.97
606.85
631.01
595.22
1190.55
738.36
684.30
856.86
801.40
785.35
556.90
488.78
502.96
480.51
710.32
804.62
723.77
749.04
711.73
834.82
778.45
734.95
728.83
570.99
481.30
437.04
396.85
545.84
505.85
2908.99
561.65
605.85
554.10
537.03
497.52
485.20
452.83
611.61
679.67
820.39
842.26
820.45
1300.46
750.41
599.67
495.93
506.09
481.09
450.29
458.77
556.83
562.59
598.91
619.69
584.54
592.90
545.18
582.17
539.92
543.72
515.02
522.93
607.62
556.66
653.05
599.27
630.68
3060.91
793.94
811.87
833.23
823.27
647.25
600.55
588.56
852.89
1162.92
1422.77
1153.51
773.01
649.11
621.95
1166.35
1218.68
900.88
495.67
528.13
760.31
729.98
638.64
416.31
472.88
723.32
714.49
857.89
1035.35
789.95
719.15
626.63
586.96
568.16
554.10
513.17
591.95
2860.60
612.73
601.26
620.88
773.14
867.83
921.42
759.34
513.11
503.51
443.96
550.57
616.87
1420.26
587.47
591.37
602.61
587.76
544.84
561.06
558.36
595.47
626.85
651.35
690.52
783.85
939.00
1009.59
909.23
731.22
637.83
519.58
366.38
462.48
569.39
611.55
650.08
744.56
2187.57
554.66
803.45
600.02
436.41
566.73
586.74
537.93
485.78
509.14
507.94
660.00
744.16
969.85
819.70
845.51
736.62
563.24
599.42
624.31
661.33
792.26
687.70
667.07
513.81
571.40
641.01
406.86
465.39
578.34
620.75
739.91
773.33
676.46
553.00
493.99
482.59
598.78
2947.47
764.25
601.64
528.50
503.02
560.51
592.77
596.70
547.26
562.66
489.49
564.57
520.56
1387.35
633.23
740.67
862.80
936.28
799.63
754.77
768.50
779.77
712.47
627.77
496.88
547.97
682.84
585.16
561.91
579.41
461.90
593.47
484.62
485.35
535.26
540.06
548.69
572.27
2835.72
625.86
554.52
522.47
568.55
789.21
937.09
967.12
636.15
509.50
464.39
534.57
474.69
1448.25
695.66
720.97
772.38
637.01
535.77
511.58
471.57
451.54
633.02
719.96
869.13
907.09
889.33
529.01
408.85
521.18
588.39
699.87
592.88
596.46
516.57
546.30
477.60
443.34
2778.81
661.36
812.80
999.73
946.43
754.69
569.73
570.33
474.47
512.73
380.82
492.14
494.96
1382.06
671.47
849.11
799.57
808.79
716.90
558.05
507.60
464.55
440.77
501.34
514.47
494.85
515.39
539.97
601.96
629.25
530.61
570.28
571.84
562.03
495.08
613.76
585.15
625.27
2858.20
644.60
575.51
615.22
589.94
634.04
675.55
648.07
699.11
702.56
632.97
736.91
685.22
1427.08
706.04
689.53
826.25
898.91
714.46
571.39
471.05
433.37
507.74
619.68
670.60
702.09
700.48
537.06
455.86
496.58
588.53
674.20
633.73
706.31
636.54
679.31
639.55
626.30
2815.47
686.28
626.10
697.34
744.41
753.93
737.45
618.36
518.70
544.67
520.27
728.82
901.61
1682.02
1311.72
1472.90
1324.09
973.68
501.29
1039.58
891.36
992.94
1095.38
700.16
475.25
536.90
470.56
472.50
502.55
536.36
547.41
621.84
673.08
673.15
647.48
577.33
600.86
2853.01
710.45
831.78
760.86
780.02
640.72
597.37
544.60
520.88
637.02
709.70
733.01
776.46
1341.91
732.43
738.35
788.00
768.28
659.57
586.35
563.84
534.05
744.15
757.61
602.61
515.20
484.05
423.68
429.85
433.39
578.67
514.30
451.88
468.48
484.61
639.77
807.87
736.29
2855.94
698.99
721.12
585.64
586.03
550.78
634.35
528.07
545.66
471.73
472.10
491.67
584.63
1246.62
699.56
739.94
701.65
648.03
590.32
554.82
550.58
534.44
539.65
533.54
572.26
580.39
798.57
643.91
606.17
621.02
613.81
642.62
733.44
689.43
768.51
756.57
847.73
835.30
2907.32
774.29
464.70
699.19
1051.54
645.52
535.29
505.35
556.83
574.90
548.25
663.85
714.42
1407.53
804.45
713.67
680.27
622.14
643.36
559.51
657.37
618.47
628.48
595.54
607.93
661.67
769.17
725.43
703.54
619.97
642.94
582.11
611.66
609.98
606.80
572.69
686.19
679.94
2705.88
658.00
531.47
452.88
587.42
463.07
490.79
527.79
628.52
684.92
721.87
789.58
697.73
1212.42
628.29
559.01
467.27
561.49
565.35
515.71
567.00
625.28
721.75
744.66
817.37
981.04
1446.18
1179.14
724.46
486.07
450.42
431.48
416.10
456.27
438.47
485.46
568.30
596.41
1440.09
901.90
795.86
708.78
623.65
478.92
503.61
527.37
583.56
591.27
641.97
637.24
680.46
801.35
790.08
686.69
688.03
588.32
606.52
486.30
447.33
409.44
441.09
470.67
526.39
2545.40
713.19
852.96
995.82
768.93
629.30
509.31
624.44
685.16
610.77
495.49
490.78
514.60
1452.66
748.31
735.88
729.84
715.33
702.34
870.96
804.40
674.20
471.28
542.69
604.52
686.31
760.03
745.40
718.92
659.38
576.71
661.05
618.79
632.88
497.97
568.42
641.33
668.42
2697.32
842.25
672.46
578.84
397.38
482.96
476.92
419.57
562.17
871.04
499.90
660.29
740.95
1421.53
492.58
560.34
473.17
556.52
576.94
697.96
668.41
635.08
549.19
512.58
472.21
628.20
757.96
731.22
669.68
722.26
811.49
832.53
689.91
674.24
546.27
615.98
807.93
938.72
2584.45
745.24
465.24
497.60
490.22
490.09
418.05
440.12
425.10
515.00
664.57
752.03
714.58
1485.79
793.11
772.75
738.36
794.25
716.89
655.71
701.69
704.56
683.12
595.31
641.82
549.83
568.06
523.53
538.52
621.16
611.52
683.48
691.29
724.19
749.47
702.01
707.69
663.91
2588.17
826.86
846.17
892.33
784.49
789.85
620.88
575.19
515.80
460.84
496.59
495.54
447.21
1417.81
641.58
613.71
548.63
601.57
590.77
706.92
663.61
640.24
756.45
760.62
654.86
642.85
462.47
458.25
605.10
668.69
643.13
666.63
742.03
581.77
620.17
648.72
643.64
728.67
2481.55
804.07
562.57
457.52
401.17
416.34
564.39
581.30
643.43
741.74
702.63
697.66
568.38
1384.70
546.24
778.93
854.78
1085.73
1017.73
780.36
476.43
402.05
480.37
702.58
796.84
2661.35
687.68
635.78
487.23
434.29
562.41
569.63
471.74
436.79
475.58
457.29
433.21
500.02
1124.16
652.04
758.19
688.44
649.17
650.91
626.08
760.64
864.79
904.50
775.24
494.47
665.36
521.15
420.09
497.95
564.13
710.83
736.82
783.31
699.29
684.80
583.42
739.31
612.62
2598.99
662.00
482.05
382.54
643.62
677.31
719.74
704.75
689.99
570.91
568.86
518.29
582.12
1123.03
657.62
614.28
724.89
646.22
658.26
722.08
735.80
569.64
588.94
743.28
697.88
835.39
1043.51
795.79
914.50
686.77
493.11
435.66
420.25
444.77
529.93
652.94
743.51
725.59
2558.42
657.37
625.31
583.62
497.15
490.66
581.74
432.78
518.33
561.99
684.27
626.75
608.89
1023.29
550.90
481.81
610.54
703.08
907.10
913.98
825.41
753.78
684.14
699.07
543.94
420.24
524.33
453.39
543.89
475.76
576.94
448.72
471.24
446.96
503.87
481.23
569.90
492.54
2633.21
806.65
868.22
741.59
743.82
779.54
857.57
858.62
882.96
702.91
486.05
441.89
475.29
1302.34
733.52
748.88
640.55
570.26
594.60
648.33
667.79
581.82
590.25
590.14
711.60
637.76
745.36
405.07
564.72
402.05
601.22
643.21
685.01
659.56
719.22
602.19
506.52
458.01
2434.83
570.01
599.54
613.76
623.72
624.82
697.70
778.09
904.15
1030.56
894.02
653.07
478.32
1065.90
559.75
680.18
834.66
857.10
798.90
510.66
430.35
463.63
400.70
397.55
449.98
458.46
500.79
406.52
577.99
663.53
766.39
741.29
610.01
649.98
760.28
793.33
858.37
713.31
2400.51
741.79
685.70
603.23
722.66
641.54
672.23
639.54
650.59
510.14
555.31
506.18
541.04
1334.91
687.17
541.42
621.74
591.38
572.41
527.96
592.21
625.42
675.98
652.35
593.87
572.49
768.92
700.54
757.20
716.47
665.86
602.47
632.20
715.34
656.45
646.50
670.45
748.08
2428.62
684.73
812.30
912.10
816.36
618.21
575.51
534.85
576.59
470.91
618.43
598.44
600.81
1150.46
547.92
470.97
463.37
393.58
425.09
469.87
510.64
583.48
586.02
496.70
418.78
409.86
572.64
516.19
542.35
382.74
375.98
451.50
532.32
535.58
594.16
558.45
709.24
842.98
2602.04
880.23
738.83
564.43
617.61
646.82
579.56
549.73
460.57
557.94
757.99
811.15
976.08
1474.42
608.22
344.26
460.66
445.13
580.06
722.59
737.08
578.67
638.19
855.02
714.43
458.72
544.95
434.14
451.87
452.50
487.82
525.98
517.06
508.48
554.79
451.58
418.70
473.34
2366.52
598.72
728.88
704.94
682.39
575.31
604.16
699.69
797.29
722.09
753.69
586.99
568.51
1231.79
833.75
719.09
698.24
660.17
678.34
613.91
555.06
500.92
563.96
671.54
815.73
633.08
646.93
444.24
583.50
701.95
720.37
542.19
477.43
444.02
526.67
434.76
496.06
585.10
2435.26
751.91
835.69
812.49
889.69
838.38
936.14
833.70
911.14
543.95
425.95
602.98
581.17
1273.27
665.48
556.54
531.99
461.32
485.68
500.82
534.59
416.02
433.07
457.31
531.89
463.62
710.83
540.63
633.80
646.59
738.37
586.44
530.34
455.95
460.45
507.45
559.58
595.05
2340.64
766.76
655.98
636.77
507.39
453.69
607.08
550.77
621.99
595.64
652.42
621.55
612.00
1083.85
586.46
460.62
625.33
658.99
657.92
587.44
664.05
606.20
606.78
457.69
482.82
456.19
635.05
648.22
721.31
683.13
794.67
731.99
802.23
949.98
966.40
680.37
458.19
401.22
2309.59
445.51
378.60
374.87
533.89
675.79
694.07
798.41
557.73
389.19
451.19
473.55
491.39
1137.83
574.04
703.41
664.89
600.59
687.81
557.92
726.00
703.01
723.79
727.42
710.01
808.81
1063.10
791.02
558.91
472.13
512.46
383.26
350.10
371.54
426.30
557.58
655.73
694.20
1853.60
743.13
693.16
565.49
651.66
622.54
519.03
512.48
506.52
534.13
611.16
542.26
663.51
818.49
763.16
1033.02
1084.67
707.39
478.90
400.97
374.82
385.90
471.88
522.70
574.02
1931.19
716.32
710.91
1006.59
931.41
833.68
581.54
743.80
733.59
614.65
360.95
401.32
453.70
627.60
393.88
456.76
389.74
426.73
451.95
493.88
468.09
476.26
603.42
475.71
470.28
528.76
579.80
576.28
483.16
486.91
541.37
642.10
680.46
687.17
551.11
719.05
535.49
640.43
2169.42
652.19
529.59
645.22
706.58
690.41
621.61
584.28
509.39
413.53
531.72
529.27
565.33
1495.57
684.00
659.63
664.47
725.14
508.86
545.78
561.65
686.37
617.45
704.26
802.83
821.74
857.42
742.16
640.06
566.90
488.83
614.29
707.58
715.41
688.87
705.27
717.32
685.93
2122.14
622.64
376.34
516.50
546.83
479.05
641.62
643.64
612.84
544.00
536.88
669.98
771.58
1486.68
551.36
435.64
448.03
439.22
417.55
567.29
624.69
627.82
632.04
734.17
745.84
724.14
904.65
757.85
489.71
476.46
514.52
613.93
632.02
698.13
601.66
490.23
394.69
364.55
1799.41
299.91
450.12
538.27
540.59
635.46
665.78
553.54
567.50
442.65
470.73
551.64
630.10
1409.97
583.32
563.37
538.92
592.15
614.54
610.32
557.52
692.10
751.27
1088.15
1390.25
2659.40
1445.83
809.74
491.11
1320.29
1377.48
748.32
345.09
444.96
554.11
925.43
953.26
2106.75
740.24
616.78
547.37
563.29
504.83
444.44
488.33
585.27
443.71
415.03
385.37
394.86
747.56
715.04
586.22
619.47
559.75
512.84
567.07
677.81
595.51
724.99
705.54
644.00
506.81
617.34
593.85
751.84
676.07
512.38
388.16
561.64
626.50
566.55
448.69
553.22
525.43
1935.76
591.28
615.06
603.51
689.34
564.48
574.80
650.39
635.05
594.69
792.69
792.65
863.09
1420.73
759.27
515.92
440.01
517.59
482.58
488.61
579.65
566.70
642.50
734.64
902.25
977.08
1006.63
673.06
445.44
424.62
387.90
578.60
731.78
758.79
695.45
531.80
570.57
502.72
2080.50
509.66
460.85
496.52
490.28
495.00
560.55
502.92
450.27
420.86
371.00
532.54
626.19
1471.32
797.93
753.68
761.95
664.98
557.61
434.11
509.06
541.26
492.87
506.92
594.71
628.88
744.65
631.14
664.95
599.15
476.22
572.34
674.55
564.48
659.58
606.58
638.29
759.09
2036.88
926.54
799.24
760.86
811.81
729.62
763.53
518.62
503.85
534.35
740.93
762.76
772.23
1418.16
707.98
639.25
526.85
454.49
430.52
421.11
454.49
502.21
518.12
455.32
444.51
785.43
587.71
385.62
382.24
541.07
600.73
539.08
455.45
461.28
386.49
385.12
518.89
667.84
2019.53
740.68
825.90
818.31
996.40
1025.27
1011.12
781.74
646.65
502.79
493.36
467.73
543.09
1256.03
701.86
577.86
515.35
379.37
536.93
602.64
561.61
554.98
670.86
702.79
656.24
631.89
712.81
641.72
721.78
686.83
629.49
562.50
616.70
538.09
493.33
708.42
806.33
758.40
1909.01
427.60
414.68
397.91
509.92
555.01
515.57
603.10
685.41
516.48
780.20
974.26
924.19
1430.68
699.11
520.81
410.90
507.82
563.70
374.12
433.30
527.18
652.37
564.98
662.28
623.73
857.97
653.45
769.79
676.39
756.80
680.78
741.42
693.15
770.07
635.04
507.76
532.64
1864.23
720.00
710.07
516.83
495.17
422.97
660.28
646.39
734.56
640.81
664.21
530.07
570.71
1237.84
784.27
781.91
775.12
542.94
508.11
397.60
453.21
431.53
522.50
431.31
447.39
432.29
710.27
596.32
748.98
684.10
773.56
606.94
685.36
663.24
719.81
646.02
441.15
477.48
3718.40
627.78
629.11
526.10
556.64
633.50
732.99
534.89
421.91
385.97
450.45
346.72
509.60
1302.24
637.33
623.05
634.60
682.37
866.47
787.49
797.96
557.69
443.21
394.24
406.40
529.25
717.68
702.94
645.88
663.52
695.72
762.93
777.21
745.06
855.38
741.22
662.59
453.29
3983.95
401.13
410.46
630.28
715.96
741.33
818.17
787.08
862.97
964.49
1103.30
656.71
639.50
882.69
444.61
612.55
581.76
668.88
690.26
664.28
695.91
632.51
633.91
570.07
494.05
383.83
569.38
496.97
463.86
461.31
534.41
549.03
693.97
657.76
640.17
461.88
542.01
497.19
3961.09
651.20
791.50
768.12
853.71
877.21
772.37
483.31
395.66
368.98
501.92
461.73
525.18
1320.78
764.76
513.18
469.75
377.45
388.76
484.56
670.72
669.41
673.25
581.34
604.46
622.09
689.16
508.23
609.04
621.78
616.05
619.55
598.53
612.63
653.00
627.84
668.69
603.42
3794.36
685.65
733.19
682.48
616.19
590.12
522.50
575.32
637.77
675.02
621.84
529.31
607.68
1292.10
681.12
716.12
628.68
451.30
559.21
501.84
583.08
525.21
464.47
453.42
415.99
516.65
849.30
771.01
773.09
792.03
625.52
444.78
588.77
686.98
718.96
723.44
660.39
435.50
3894.07
539.85
621.23
515.63
635.70
512.45
587.63
591.30
665.91
624.19
620.10
654.62
740.31
1431.98
776.19
595.75
547.38
429.97
598.43
582.97
587.93
455.63
756.30
958.44
962.58
694.90
575.83
688.02
665.28
416.89
498.64
523.41
631.01
710.54
724.87
834.84
1002.97
1003.39
3828.25
424.98
356.64
402.10
569.01
677.76
650.31
645.47
640.61
573.59
564.76
441.21
540.48
704.18
580.52
491.31
633.73
672.03
812.73
719.12
757.34
712.99
559.45
386.45
398.59
371.75
539.91
528.30
659.18
630.35
679.72
627.28
585.95
579.00
620.45
529.16
528.06
518.68
3709.27
646.84
568.30
527.43
611.83
734.71
760.41
652.11
717.03
605.64
739.47
667.32
623.28
1328.65
668.87
591.60
618.55
665.93
710.97
742.47
935.97
769.13
757.41
777.28
822.75
583.77
583.01
791.93
745.60
385.70
454.24
469.99
596.94
616.25
727.66
581.19
503.93
512.05
3781.57
617.79
640.36
483.63
392.00
438.98
447.79
397.27
493.77
414.81
489.55
507.24
541.70
1289.29
599.07
649.64
676.67
686.21
742.29
793.75
801.91
800.14
795.44
724.92
673.65
447.56
641.20
553.73
633.06
532.68
538.41
423.83
621.63
616.47
630.18
740.25
989.98
1029.22
3717.56
550.70
800.59
770.56
413.09
601.70
795.22
773.28
696.26
663.76
675.97
651.47
731.08
1385.43
764.18
561.45
483.60
538.35
653.83
651.30
536.46
350.66
462.85
630.98
746.03
520.68
570.09
515.08
497.70
631.60
742.12
683.16
744.28
648.05
562.48
581.05
571.65
627.06
3648.36
656.40
664.74
677.55
682.40
491.97
530.70
403.07
518.72
572.65
379.03
397.12
382.49
1164.43
578.57
598.30
667.71
536.29
598.70
548.52
550.47
534.67
552.15
545.98
556.29
642.06
767.70
683.27
733.40
655.52
699.58
562.16
553.62
584.37
704.83
757.22
739.78
657.91
3676.81
549.39
407.47
574.67
611.62
731.22
706.63
661.20
660.93
667.67
719.83
531.29
677.11
1355.32
721.65
635.03
573.88
502.16
543.47
481.16
541.46
551.90
461.23
427.26
468.67
452.89
634.12
628.57
719.55
749.22
617.64
459.85
524.04
621.08
742.43
743.84
745.57
568.77
3513.71
583.84
552.78
498.46
599.27
547.53
584.91
455.76
401.20
347.96
452.41
519.21
532.16
1325.22
560.60
623.53
608.43
474.74
666.94
712.74
836.10
821.65
561.80
552.84
604.94
617.63
854.55
743.64
699.77
456.75
452.69
422.62
507.95
597.01
711.33
663.66
646.27
617.34
3566.52
773.61
899.39
892.05
868.88
754.32
649.66
442.42
431.50
358.48
486.24
535.29
682.87
1253.63
494.70
353.95
463.30
393.18
506.00
646.00
716.89
655.81
501.42
407.22
425.72
500.85
953.96
1030.63
1251.99
1256.53
1119.04
749.57
453.20
548.16
483.76
349.84
535.04
663.26
933.45
703.39
691.89
493.51
467.04
455.49
521.04
526.55
553.65
495.97
522.48
446.69
3555.09
549.11
529.72
500.66
600.47
623.58
647.60
624.51
681.85
593.08
712.48
737.19
865.80
1358.92
673.21
566.63
551.88
530.86
520.40
486.10
585.38
539.45
656.43
641.22
620.96
647.82
982.82
673.82
780.09
748.02
922.06
878.86
783.64
547.30
529.30
428.73
360.03
448.15
3903.40
862.21
1037.96
780.26
497.08
399.69
544.73
460.50
548.47
537.58
588.62
535.34
662.60
1444.39
712.09
736.84
763.78
722.48
692.02
608.58
636.35
573.86
709.95
615.93
609.26
613.34
694.35
628.43
705.94
672.36
597.52
352.27
401.44
530.85
753.95
1058.26
1256.95
1100.97
1452.12
443.27
459.15
411.80
482.82
425.56
347.42
356.78
472.93
571.60
647.40
679.61
3498.37
789.81
795.04
756.70
646.39
405.81
434.34
459.98
536.88
540.27
556.48
535.42
504.58
1189.80
750.55
688.12
584.17
505.34
523.65
579.02
649.59
560.14
511.34
573.96
596.49
508.93
629.88
581.99
625.97
619.53
534.38
474.76
517.14
497.85
495.76
516.47
521.63
525.70
3641.62
626.14
597.93
555.07
589.67
604.89
619.22
541.68
481.44
594.87
712.96
822.92
803.54
1325.03
743.29
787.32
693.59
627.95
495.59
617.17
606.43
466.91
514.95
412.30
480.33
517.28
623.60
671.87
793.47
744.01
799.97
662.54
581.27
461.55
502.02
449.55
587.20
608.88
3444.48
675.81
621.47
585.40
572.24
635.76
687.54
699.39
608.36
546.49
563.66
642.31
637.95
1248.74
539.75
567.06
531.46
507.42
509.07
452.95
450.60
520.61
460.96
456.71
540.44
567.03
671.80
587.28
713.11
462.98
426.60
424.88
483.14
420.33
498.66
542.67
522.94
406.50
3587.73
705.52
741.02
737.46
806.33
922.25
956.71
1055.99
1109.61
886.67
426.99
1126.11
1448.05
643.38
533.70
808.75
1029.43
961.04
1088.65
919.51
811.94
459.88
509.92
447.36
464.46
545.88
457.43
433.31
442.49
395.64
374.94
442.86
501.87
461.46
435.48
560.57
583.91
3539.64
574.39
593.04
648.75
606.24
612.89
539.31
751.73
635.47
709.35
684.53
770.24
767.78
1508.76
797.62
693.96
504.49
491.39
406.09
471.89
514.74
670.12
629.11
780.86
711.24
707.43
647.05
510.50
450.70
454.73
448.56
482.77
503.85
523.44
561.13
519.45
408.23
548.77
3383.70
1058.10
994.90
939.90
764.52
612.98
557.06
560.51
467.89
613.43
708.94
705.52
560.30
635.22
483.08
429.67
704.92
915.98
901.63
822.00
655.24
538.45
426.29
433.48
464.05
494.32
447.47
540.50
506.83
571.28
530.14
557.87
454.87
604.91
624.58
678.52
695.74
652.47
3389.32
683.29
561.62
588.67
522.91
461.37
468.47
548.91
448.74
566.91
669.98
725.39
679.97
1389.15
439.53
509.28
595.66
634.93
534.87
632.66
637.12
612.64
551.73
664.05
580.42
776.47
969.15
1044.44
1081.07
836.21
553.42
461.00
341.55
441.66
518.71
831.12
935.21
825.56
1000.30
578.02
952.53
628.97
403.64
501.91
557.63
538.92
545.37
398.99
456.77
477.11
514.36
823.28
719.30
582.32
603.66
628.40
555.06
607.36
506.61
464.33
480.00
539.86
552.53
865.81
949.11
854.81
792.04
756.43
781.27
923.95
783.79
579.03
456.94
500.57
409.28
650.52
3290.04
1010.60
843.71
570.38
461.22
475.06
406.69
584.55
597.04
614.44
514.60
387.24
386.05
757.61
485.04
488.69
485.30
487.44
554.26
761.65
761.79
818.90
750.69
718.82
559.54
512.32
566.28
630.82
525.28
448.65
380.81
434.58
439.52
441.63
423.62
517.25
508.00
568.61
3394.94
570.31
682.57
795.55
707.84
609.62
559.96
599.94
554.51
616.52
494.71
533.08
617.63
1580.69
807.10
796.01
802.73
684.24
448.61
445.30
389.47
540.20
521.86
489.95
486.05
456.28
753.46
900.16
900.13
794.43
708.88
641.76
650.20
732.96
719.11
735.59
534.95
536.64
3287.70
478.05
512.12
487.54
496.94
548.19
537.53
538.16
456.21
501.25
499.49
561.53
543.44
1451.35
768.33
780.17
632.73
570.18
570.27
706.61
621.19
678.43
751.18
762.99
789.68
623.98
549.70
498.87
492.26
466.35
519.18
642.94
615.53
668.24
621.77
622.52
473.47
509.84
3227.43
746.69
702.55
614.26
408.37
589.26
469.79
448.07
564.95
593.02
570.26
678.79
683.15
1418.12
562.41
539.46
554.25
606.74
705.40
736.70
731.37
820.82
700.30
732.12
568.26
555.09
631.19
810.70
876.68
778.81
729.12
706.74
479.48
537.44
483.55
467.30
537.44
437.38
3372.81
488.30
465.40
660.31
760.32
956.71
952.62
1017.07
763.74
542.74
454.19
470.72
423.44
1436.40
752.69
766.33
675.81
547.11
473.38
478.61
419.32
478.51
497.59
596.88
588.99
538.37
642.26
683.46
562.40
548.76
562.14
593.97
582.12
623.94
633.97
629.25
620.31
610.11
3188.35
761.02
741.40
734.64
716.55
551.39
498.28
517.89
571.18
739.32
768.47
928.30
730.54
1427.78
548.08
524.01
464.21
593.30
532.06
468.91
382.04
625.52
806.40
926.60
689.51
561.10
1298.51
787.91
425.95
513.79
497.46
491.31
572.04
673.81
627.98
857.27
814.82
803.22
2166.26
803.12
688.63
671.75
595.90
697.02
715.33
748.32
499.11
483.97
397.19
463.72
459.69
705.90
570.04
552.77
474.12
557.20
504.96
556.50
501.47
608.52
612.50
658.87
635.53
670.47
789.80
810.43
731.37
669.62
604.00
535.68
446.35
511.67
546.00
643.79
549.06
518.98
3239.54
563.22
563.57
602.31
582.57
686.95
626.67
599.07
631.22
666.54
579.27
464.01
456.05
1433.21
605.85
562.55
561.18
490.34
533.89
572.16
688.08
691.86
789.67
848.14
772.20
526.23
484.82
464.05
506.18
753.30
1117.45
1142.87
941.77
706.37
605.66
609.72
367.35
541.16
1116.24
564.46
536.21
523.23
478.19
506.59
441.74
516.55
417.35
431.81
445.79
504.52
521.73
758.33
640.76
628.74
521.95
559.94
468.36
574.89
580.62
661.55
638.12
671.76
707.00
3260.69
646.29
625.73
575.41
670.56
601.24
698.59
818.63
919.38
771.95
605.73
416.04
543.77
1128.57
389.96
438.39
621.36
629.23
585.53
513.36
544.30
685.92
824.81
667.67
641.15
456.92
630.73
587.59
628.70
569.66
655.05
698.73
715.93
708.78
805.79
708.12
674.79
602.55
3188.92
739.02
658.31
582.54
574.33
508.12
557.32
504.80
617.43
494.64
581.13
908.61
822.35
1134.13
990.59
840.58
712.57
732.30
641.47
577.64
570.90
588.96
697.75
635.05
689.06
506.32
715.88
645.47
599.38
582.84
647.25
601.95
427.15
417.78
460.75
526.64
537.90
534.36
3245.63
533.82
515.89
531.48
535.90
599.29
605.96
645.34
665.74
569.89
559.49
657.45
670.12
1131.75
645.20
680.66
759.76
576.63
621.53
736.34
867.75
741.76
679.28
584.23
555.20
481.91
524.37
499.57
498.05
468.57
425.86
425.66
537.50
560.06
627.28
594.88
651.46
534.32
3203.81
490.97
501.62
564.49
590.27
446.05
599.40
590.66
714.36
746.92
763.53
604.63
484.88
989.78
581.53
747.19
904.14
742.62
736.82
741.20
940.87
1063.00
1356.18
1214.63
859.70
3620.74
449.56
410.82
412.92
444.23
504.37
787.58
907.28
761.64
661.76
443.25
487.61
607.40
1180.37
885.11
680.11
487.17
416.46
367.88
629.16
641.05
576.89
614.93
578.11
646.79
3177.65
727.12
765.65
582.37
626.30
555.91
625.12
759.94
783.55
914.21
854.26
793.52
736.86
1116.06
581.34
505.18
504.64
452.99
549.43
504.81
522.49
465.25
602.39
627.80
655.67
479.01
549.57
496.02
609.28
685.90
778.31
711.68
574.59
527.29
598.44
573.87
651.67
693.12
3222.47
701.85
658.98
582.10
556.81
458.85
516.57
479.78
671.88
732.06
836.49
798.68
596.97
1103.17
559.13
493.69
461.34
477.12
460.00
501.30
559.03
602.63
498.80
475.77
471.93
556.18
774.45
588.65
661.29
627.40
598.29
594.41
611.27
639.94
592.89
621.65
528.71
525.99
3237.68
433.41
427.21
722.23
819.34
774.36
824.57
680.98
610.56
574.44
616.35
741.85
946.17
1442.11
718.68
549.95
910.86
1135.81
511.11
468.31
603.67
549.44
624.38
580.88
589.34
3102.28
705.25
676.54
686.40
617.27
686.06
588.56
656.31
711.76
696.70
654.70
668.34
621.73
1543.01
685.49
740.69
701.64
694.02
685.59
624.92
594.52
523.61
403.48
400.15
434.01
524.39
668.72
592.27
720.64
715.35
557.08
480.01
490.15
537.49
528.28
549.08
577.63
561.33
2973.28
619.10
528.78
542.71
575.34
668.28
682.30
706.15
651.74
612.77
553.76
550.64
492.58
1441.22
564.24
612.47
595.56
626.50
640.36
755.69
744.47
621.46
537.29
521.09
605.64
596.39
663.21
604.08
497.69
505.12
455.54
613.66
597.34
586.23
552.44
630.48
620.38
556.76
3095.30
643.09
595.92
600.88
603.05
630.80
575.06
627.66
597.96
589.05
566.90
650.68
583.59
1451.39
741.53
675.19
752.11
862.95
875.32
843.63
506.93
657.90
758.71
496.49
377.36
465.37
563.32
585.85
654.06
654.76
719.09
620.32
766.87
838.53
912.88
972.31
845.00
781.18
2874.43
714.78
885.88
897.32
831.92
675.20
451.72
668.35
727.63
844.19
715.81
354.66
452.31
1425.46
579.98
631.20
593.16
605.33
554.20
721.60
670.66
625.68
595.41
632.76
581.76
627.83
751.10
568.06
596.48
596.91
654.45
588.44
562.80
638.51
563.24
543.66
447.29
622.99
2913.77
721.83
645.19
721.75
763.07
659.34
561.31
625.25
577.65
527.37
620.19
919.31
1000.94
1794.87
905.35
735.49
550.41
631.20
618.91
744.81
652.99
587.42
480.68
490.23
468.00
2940.52
463.61
601.43
887.06
607.36
457.84
570.68
644.85
737.71
622.00
641.60
548.57
656.06
1333.95
819.14
766.79
713.50
684.08
690.29
554.55
521.48
495.09
513.13
447.60
505.97
528.72
768.06
747.17
726.72
648.28
692.78
647.00
598.39
527.29
538.47
497.70
566.45
560.57
2897.42
637.15
609.58
635.29
717.16
674.41
663.93
693.00
673.79
636.10
696.72
639.97
655.61
1432.39
1020.11
1033.51
1211.49
735.47
625.89
1117.10
1021.96
500.50
567.10
618.11
618.13
958.00
744.24
752.58
691.07
648.50
555.84
556.84
494.70
514.83
540.77
667.83
795.61
642.28
654.94
715.07
420.63
618.99
697.65
718.66
749.80
714.20
647.50
542.15
592.80
505.36
2909.46
769.24
712.47
683.94
744.09
733.05
742.45
624.83
623.86
440.87
513.90
459.13
567.62
1272.47
687.61
566.32
536.26
558.55
657.30
579.53
667.72
553.56
663.91
573.12
610.61
555.46
638.77
609.48
747.12
726.75
786.37
746.56
773.23
720.31
711.38
606.71
618.63
495.78
2845.10
559.24
626.63
599.52
789.44
730.94
781.53
631.29
598.66
590.46
572.48
496.25
394.96
1040.57
551.59
669.03
799.52
678.01
721.33
670.97
654.84
597.05
535.60
521.88
506.24
496.86
718.86
600.48
687.23
593.30
652.51
572.12
645.97
578.75
609.39
591.21
669.37
672.59
2895.31
622.34
519.90
444.18
509.23
554.63
646.97
566.92
629.34
429.01
511.38
562.55
735.99
1412.71
1067.34
936.92
792.61
633.61
564.89
469.82
446.46
513.71
488.73
584.62
627.16
2894.88
698.70
596.89
482.28
475.51
538.65
524.99
585.01
610.60
636.56
495.45
565.40
597.37
1544.48
678.62
767.08
774.37
928.52
883.68
1085.98
1068.60
784.78
424.61
605.46
695.98
3001.11
512.27
729.14
713.68
790.24
652.13
576.99
386.74
480.29
547.62
627.40
613.91
674.52
1271.22
756.49
675.32
785.30
767.84
852.68
865.63
810.22
703.87
636.95
604.09
658.44
635.32
702.32
732.96
752.48
687.21
667.99
673.46
585.14
528.13
586.29
440.26
571.28
499.80
2782.27
921.35
855.42
801.11
613.22
426.66
557.97
575.72
529.85
411.17
503.17
499.06
468.92
1057.57
639.38
660.24
681.84
597.25
564.85
473.10
638.08
715.96
910.31
988.51
1034.08
916.59
752.02
521.43
525.20
456.31
506.85
519.12
544.36
613.65
613.71
655.99
716.06
695.80
1837.90
710.95
673.25
673.52
679.43
598.20
705.24
677.98
788.29
762.64
684.07
511.74
498.17
731.55
731.68
752.66
894.86
666.82
479.23
438.33
502.43
578.11
768.47
907.32
882.30
739.56
730.25
539.83
560.25
495.63
522.20
482.50
465.69
511.45
533.08
423.88
493.08
451.33
2896.72
768.78
774.20
780.08
779.92
698.12
716.38
639.18
561.69
567.83
698.90
676.03
699.48
1391.84
982.94
981.32
922.89
537.46
505.35
493.76
515.65
410.47
433.75
474.60
553.58
617.76
851.92
715.42
723.24
661.70
685.51
745.25
714.91
550.28
487.97
387.45
551.75
512.12
2805.45
513.01
566.09
533.35
693.81
769.26
668.54
699.81
599.58
609.90
565.04
571.43
596.92
1162.87
637.96
563.96
521.15
554.98
847.42
731.71
967.23
1046.79
646.41
532.00
584.55
2671.46
855.44
659.28
697.90
656.47
534.33
418.49
496.53
507.76
431.02
411.13
449.89
462.62
1514.00
618.53
651.50
651.38
712.43
690.59
628.74
496.59
559.46
579.84
624.54
626.46
600.02
692.15
738.66
698.62
856.12
682.13
679.06
550.79
444.73
431.26
516.28
596.14
673.18
2622.19
796.36
742.00
733.79
656.28
611.06
678.67
755.90
686.96
619.84
603.38
599.03
640.40
1532.80
725.02
662.19
474.87
462.91
416.75
701.39
933.00
1108.03
793.33
493.06
439.99
2757.94
593.02
823.19
760.86
772.76
695.54
629.83
667.84
995.14
918.90
607.90
676.46
959.72
1544.16
775.04
472.64
558.27
612.94
585.55
569.08
670.14
665.30
632.72
613.69
643.16
580.35
630.23
619.33
651.87
659.07
698.14
694.29
736.20
696.38
683.75
645.60
728.22
772.16
2755.09
984.87
952.59
807.69
649.01
453.24
516.93
457.88
497.33
503.11
507.06
577.77
562.85
838.14
712.66
674.40
760.35
718.71
756.27
631.58
661.64
486.76
447.70
475.21
599.51
662.37
836.04
728.32
724.72
648.09
768.14
762.91
817.82
740.69
732.40
552.92
663.32
668.42
2666.87
651.05
733.47
763.78
778.88
574.43
479.07
495.49
498.81
457.27
543.02
500.77
481.07
1131.86
470.28
444.64
494.89
477.78
467.19
606.82
770.77
754.92
727.66
694.45
708.74
615.71
685.62
623.77
703.10
727.09
785.74
732.87
685.36
636.63
575.63
504.34
488.93
474.14
2475.24
626.12
793.15
877.51
900.39
973.46
810.55
729.89
602.23
576.49
492.02
398.26
535.74
1131.21
618.15
576.02
653.97
638.29
715.95
707.71
720.33
668.45
675.35
598.18
535.71
575.99
749.13
532.27
645.14
617.79
721.34
643.87
669.28
638.63
686.27
679.62
810.87
691.59
2604.31
656.53
640.99
642.60
543.36
542.32
467.16
448.02
474.76
445.03
582.42
553.02
591.32
1127.49
707.46
678.97
553.42
611.06
651.63
625.06
613.04
694.03
685.57
698.50
953.46
1034.83
1239.86
739.34
705.66
1351.25
788.92
561.40
837.31
1127.49
1290.46
982.46
621.11
527.91
560.91
484.12
588.56
756.05
885.53
782.40
799.77
749.56
733.75
649.42
614.91
587.76
2635.94
563.78
631.56
610.19
690.76
489.08
519.93
450.21
487.66
708.42
761.68
734.82
728.75
1256.68
670.63
575.27
691.06
732.00
600.70
573.77
558.38
469.63
478.94
475.28
519.57
549.77
720.06
631.13
784.37
667.16
730.50
897.22
817.70
746.69
758.65
703.47
550.53
535.82
2583.07
627.12
677.53
635.94
604.72
569.62
522.22
529.20
523.88
567.91
647.96
603.82
637.10
1333.48
712.57
665.34
775.65
867.47
903.58
844.91
706.43
634.89
621.27
457.01
543.90
968.03
1034.82
476.75
753.67
823.13
705.65
683.66
658.65
704.26
706.83
629.55
646.55
565.93
2501.94
554.97
562.98
429.09
475.09
430.26
711.85
838.17
792.07
443.81
594.62
540.21
464.09
1236.07
760.06
755.61
830.69
788.61
776.36
693.31
730.11
623.18
636.82
536.11
642.72
635.94
816.00
689.00
703.12
610.46
667.22
658.03
695.79
616.64
557.92
512.36
475.83
547.43
2450.31
652.68
631.16
602.11
577.39
559.18
578.89
678.27
681.38
588.70
587.46
610.57
685.79
1228.90
701.91
686.24
740.35
641.21
676.25
628.85
687.10
610.96
704.52
647.42
761.06
639.17
783.07
734.84
589.93
497.05
577.78
575.36
643.37
570.55
630.84
620.80
652.23
682.44
2488.73
469.88
426.84
465.95
671.95
808.29
868.84
772.43
714.68
601.24
593.33
512.99
561.33
1145.59
490.62
498.60
745.50
776.38
766.50
726.12
650.65
632.28
719.44
592.14
629.20
558.75
622.58
492.37
501.25
493.75
580.47
488.41
585.87
566.94
631.39
662.60
612.49
496.44
2476.54
534.77
562.34
698.18
983.00
924.83
942.71
735.08
473.21
437.89
504.51
800.04
923.71
1402.78
614.29
619.07
594.78
446.52
645.83
664.59
667.97
581.79
593.65
559.02
555.91
464.04
616.26
424.94
505.87
460.86
781.19
990.39
896.66
725.51
735.91
500.78
407.91
432.03
2377.62
454.30
674.53
524.76
549.01
494.70
565.07
593.92
667.39
702.16
662.28
689.32
747.56
1377.09
1017.56
984.83
813.87
405.03
406.54
460.00
587.20
711.44
717.17
512.03
467.42
2393.76
838.03
798.69
791.73
723.68
634.74
482.71
481.85
377.43
461.66
389.72
381.53
404.48
1583.40
543.31
651.69
598.45
696.49
561.29
626.81
646.56
650.64
546.66
599.80
563.83
586.33
650.11
680.14
694.87
841.37
929.49
929.42
788.17
772.23
611.39
486.39
447.15
513.19
2097.67
626.44
598.01
692.82
664.67
787.63
734.11
739.74
591.42
639.95
596.48
640.65
589.74
1598.47
794.88
720.76
658.99
856.60
805.88
842.20
503.61
414.20
446.83
400.25
572.22
822.27
1018.86
1046.70
1006.65
997.14
720.93
609.73
488.92
482.63
520.98
371.30
417.17
462.59
1814.45
466.38
429.25
459.43
552.50
694.26
686.03
663.18
651.08
673.20
711.17
775.40
711.06
1064.13
523.08
834.98
983.65
453.28
605.41
890.35
750.74
669.20
684.94
729.69
769.42
943.92
1062.81
1001.47
796.99
477.35
313.76
501.52
632.14
816.93
591.48
524.00
346.77
361.71
1750.88
508.30
562.91
655.75
810.57
909.95
785.22
724.66
395.22
410.34
508.87
742.93
860.21
1138.79
706.31
684.34
544.20
568.61
479.65
576.17
616.02
572.60
407.14
479.76
427.96
2318.92
607.97
522.89
602.33
656.95
598.69
557.27
580.19
606.27
682.49
548.24
382.70
663.86
1495.10
886.60
804.80
693.30
527.70
435.52
399.59
409.81
419.16
498.60
493.41
557.74
549.79
606.07
478.31
589.39
614.04
767.99
620.49
676.14
614.33
566.54
614.10
556.42
537.58
2223.12
677.02
645.05
598.61
733.07
626.31
677.44
688.42
685.97
720.30
819.77
757.98
862.13
1461.71
728.79
543.90
358.21
670.01
414.92
470.76
651.39
616.83
516.05
390.93
509.72
543.18
721.11
618.28
734.40
671.95
717.67
652.76
618.90
623.63
618.46
662.42
618.91
571.09
2136.43
620.34
626.62
607.90
576.79
766.32
638.03
602.99
596.06
579.03
565.92
565.72
453.55
1071.42
394.91
443.83
466.32
489.65
549.84
490.59
529.67
616.53
632.02
445.80
625.51
492.92
771.19
771.49
853.25
922.31
884.51
825.00
482.08
424.31
498.17
848.79
1060.17
847.57
2414.94
360.02
344.45
487.91
871.88
1135.37
1299.10
1071.56
861.55
715.12
609.80
463.31
1802.04
431.32
428.86
488.39
554.07
524.38
482.15
381.84
350.28
448.71
387.21
466.06
448.13
621.72
465.33
412.41
534.15
658.85
686.45
685.62
619.86
636.38
681.65
640.85
628.56
556.10
708.05
604.69
601.38
490.33
458.72
519.58
586.86
596.87
666.23
686.89
722.48
712.31
2340.70
799.87
933.19
969.74
807.43
559.56
398.69
559.86
601.53
315.19
539.15
740.97
887.40
1395.04
829.34
722.83
753.58
635.96
625.46
684.28
827.71
837.41
712.84
744.12
658.29
342.73
445.37
381.90
365.09
434.85
672.13
613.47
615.46
388.11
394.84
432.25
453.15
441.18
2051.42
475.00
481.78
602.85
511.14
469.76
633.98
561.44
589.73
569.36
628.62
713.23
816.29
1467.15
881.94
664.08
354.63
365.09
415.86
439.47
509.79
574.79
670.78
705.76
714.34
735.02
904.76
803.38
757.33
613.30
502.45
392.84
480.22
810.63
976.90
735.06
422.86
698.90
2123.26
523.36
848.11
964.32
1051.80
915.66
787.16
485.71
471.84
524.78
862.67
851.02
778.16
1094.64
888.38
753.82
666.22
570.03
587.99
433.95
403.40
366.72
436.58
340.05
397.99
1844.74
481.54
387.05
503.91
502.52
559.63
535.14
576.24
588.84
686.60
595.57
682.32
617.16
1606.87
656.13
822.27
757.51
853.37
873.72
758.75
543.80
563.74
485.11
641.62
772.82
675.61
734.04
613.92
475.09
395.32
450.65
601.00
524.38
574.32
444.16
461.45
607.95
412.15
1865.16
1043.78
969.69
901.98
765.24
766.58
766.94
841.97
889.19
944.59
903.30
755.34
501.95
563.98
390.81
447.68
359.26
562.31
466.53
472.43
442.86
515.77
561.86
747.62
551.06
391.23
423.17
410.99
499.74
709.60
724.78
861.42
777.26
735.67
670.62
739.19
664.66
704.09
1868.85
510.11
438.29
502.44
575.23
793.76
879.04
726.00
594.54
619.15
683.71
704.34
614.50
1514.54
492.97
453.25
472.88
580.84
472.86
494.50
562.19
616.76
566.74
712.52
688.66
734.27
773.04
689.56
722.71
867.99
865.63
747.54
395.13
441.47
323.42
391.17
389.10
513.13
1614.82
635.57
615.00
666.37
554.32
687.60
792.03
632.86
748.73
1042.77
949.59
778.58
564.77
1574.00
533.28
480.46
515.77
488.42
432.21
381.00
376.27
442.35
367.61
485.71
568.33
609.57
717.83
626.51
727.36
965.53
1086.11
1438.20
1516.84
1527.05
1097.36
575.09
624.97
2441.10
650.47
407.92
388.89
555.53
596.81
678.12
605.25
624.82
516.75
517.87
425.01
433.65
1128.09
533.09
557.68
489.69
483.86
490.45
545.67
597.41
533.82
562.45
551.79
589.16
554.12
789.84
652.79
692.09
659.97
758.53
712.89
697.40
674.94
717.44
626.02
571.78
494.48
3710.07
562.82
624.95
548.99
602.68
660.60
648.00
680.25
695.16
591.25
704.43
618.63
639.13
1199.21
728.92
582.18
608.84
568.17
621.07
682.18
1021.97
1060.96
1002.19
644.44
495.75
1675.46
454.99
398.86
506.96
499.40
573.90
635.28
701.51
552.08
452.64
412.47
533.10
524.37
1622.41
512.19
502.38
492.00
567.31
504.52
667.22
664.34
651.66
488.07
559.04
596.26
657.82
895.96
743.64
703.52
842.96
537.54
433.86
400.37
396.16
456.20
569.46
538.41
608.17
1460.50
833.06
872.78
759.08
487.34
425.78
554.25
688.34
686.28
847.05
738.02
778.13
576.44
1609.09
612.09
664.92
538.84
394.99
380.53
455.91
536.29
670.96
837.62
817.16
551.67
444.21
468.37
577.34
628.00
671.01
653.45
711.30
678.80
725.29
786.90
699.28
653.93
658.60
1381.64
655.87
592.36
660.54
588.39
588.69
562.42
700.42
678.42
852.31
810.86
781.84
700.88
1687.06
579.65
463.34
415.92
422.10
344.36
432.61
525.35
731.60
799.99
886.55
739.86
552.50
427.19
383.53
446.24
380.86
387.36
368.00
371.36
435.09
415.59
569.39
526.49
616.75
1472.33
635.50
655.44
648.77
617.66
745.80
593.37
615.33
519.71
624.53
734.17
965.90
971.87
1824.35
812.13
680.79
572.70
635.68
688.17
734.16
745.61
741.99
652.55
559.51
349.38
481.19
695.21
627.18
380.82
414.00
438.34
561.92
651.01
637.00
627.27
764.83
805.27
951.54
1751.49
945.00
835.65
795.31
626.05
469.40
384.88
462.69
475.02
834.35
1108.31
1178.37
837.39
618.37
728.05
413.97
426.42
567.71
640.01
834.01
850.06
967.20
922.35
837.93
680.17
3839.62
571.62
488.74
375.20
386.21
454.56
451.15
502.41
712.27
646.42
676.25
584.33
521.92
1116.86
510.40
506.15
647.91
683.60
788.34
823.75
833.18
865.08
861.38
665.82
577.63
477.71
667.32
576.75
559.27
550.97
520.88
455.45
484.16
518.14
503.34
502.69
579.51
438.09
3946.56
431.02
442.39
398.58
494.61
505.51
511.51
508.29
655.03
681.60
703.13
639.13
708.29
1308.48
649.92
565.82
563.14
645.14
593.26
576.81
730.41
754.98
754.14
678.33
621.61
347.50
655.38
418.47
582.15
650.19
793.65
734.21
776.93
735.80
744.87
624.07
615.18
538.51
3675.01
539.79
578.83
505.14
587.94
638.09
671.80
575.40
785.71
656.76
645.21
529.61
597.54
1275.88
793.59
700.66
775.67
632.88
375.15
388.39
468.79
389.11
363.34
504.94
512.57
523.28
639.84
523.04
561.76
475.14
431.61
576.15
851.72
978.01
931.85
696.06
493.73
351.43
3630.45
969.09
976.29
614.73
432.76
444.38
497.23
476.25
521.04
429.53
600.71
611.49
771.19
1420.16
746.28
636.74
517.05
618.83
785.56
664.22
677.77
626.06
660.96
565.66
470.40
483.64
594.72
598.39
478.55
372.47
419.01
390.79
460.18
584.85
637.24
647.34
716.28
670.92
3685.78
698.59
805.90
671.04
770.92
637.10
676.14
566.61
546.35
420.39
486.99
524.32
674.55
1379.21
753.80
609.24
567.64
495.02
606.70
631.75
689.55
654.93
732.31
708.80
759.95
648.79
642.85
589.67
609.58
775.64
937.89
831.99
611.20
441.08
622.62
757.28
571.62
411.15
3646.16
551.03
560.60
606.70
654.90
681.68
740.11
617.06
571.12
573.83
680.74
698.24
742.79
1419.69
676.23
563.91
595.13
464.98
598.12
601.60
687.91
594.39
739.39
654.39
647.33
703.40
729.10
563.81
598.24
690.50
721.16
687.01
760.07
536.08
516.51
379.67
460.89
484.57
3596.89
576.51
643.18
647.48
745.88
615.72
742.75
599.64
677.27
508.82
459.37
476.71
495.83
1315.11
571.05
501.26
561.47
583.91
797.73
1133.22
1261.46
967.39
657.23
378.11
565.97
2089.72
761.59
578.92
435.15
406.91
416.47
439.75
537.10
485.88
452.98
395.02
577.88
675.62
917.45
586.61
540.10
396.61
407.46
405.71
459.90
455.75
620.71
648.37
700.29
676.24
711.77
846.93
672.92
545.02
404.86
480.03
454.94
484.44
469.13
589.20
783.30
757.05
732.61
3664.74
697.96
652.46
854.85
938.51
938.51
818.08
701.33
548.72
501.72
395.37
486.14
395.59
1607.89
339.92
425.49
514.34
550.98
522.22
577.87
603.59
624.66
629.91
701.42
590.90
578.15
649.51
799.72
846.35
842.53
635.21
687.99
465.64
619.92
606.04
683.36
677.29
586.63
1361.42
712.04
726.28
733.49
499.23
572.00
476.04
477.67
620.38
519.64
492.91
513.53
535.49
1669.99
612.14
728.84
700.95
576.29
529.85
819.60
771.83
751.61
595.67
593.56
494.13
568.87
586.28
417.17
416.30
453.01
507.52
505.03
439.21
590.72
590.01
615.68
576.14
662.12
3632.09
821.49
818.80
757.34
688.16
813.55
717.67
473.29
375.51
481.62
700.71
665.18
546.86
1603.85
734.58
1036.38
909.27
666.88
373.47
452.83
396.31
494.63
514.01
535.11
690.20
3674.01
836.99
738.76
636.61
586.94
504.70
455.04
503.18
582.57
613.35
634.46
356.75
427.52
1242.66
786.20
746.56
772.65
618.85
687.16
580.52
617.96
559.12
522.02
379.85
500.34
435.28
615.47
562.09
594.77
549.72
669.60
596.99
769.34
856.13
991.31
751.43
781.81
745.17
3645.94
479.23
399.46
486.98
552.16
629.41
571.94
536.25
492.96
415.96
507.37
425.71
481.32
1224.78
492.00
584.54
591.83
695.15
730.22
734.49
845.59
809.63
692.17
589.83
693.43
707.81
830.27
563.41
679.25
617.96
641.08
543.20
568.30
615.79
492.08
435.42
445.00
414.96
3745.73
505.17
475.55
448.75
448.06
469.25
550.21
603.71
715.53
689.39
721.91
748.27
953.16
1468.07
671.11
620.24
536.37
368.74
415.48
407.23
690.39
857.90
1017.12
1032.63
1109.48
2621.98
905.26
618.45
546.63
445.96
458.18
409.29
425.96
449.72
454.09
454.65
484.65
438.71
661.72
531.16
628.07
593.90
585.92
714.87
864.54
604.05
451.10
634.48
422.81
424.01
3565.16
720.62
771.76
645.49
701.36
640.57
705.02
698.51
752.03
608.00
628.96
541.28
654.32
1469.09
684.95
661.19
615.95
522.78
403.60
377.93
561.99
608.49
732.57
704.53
743.35
589.54
696.96
602.14
670.38
622.76
676.41
581.49
582.22
569.03
689.61
610.21
580.43
560.68
3547.95
696.77
526.87
504.58
534.22
585.79
612.92
622.99
558.15
428.61
548.96
681.73
755.89
1415.22
628.96
446.88
403.89
435.98
616.90
565.73
581.16
480.55
529.91
448.78
532.66
542.23
653.98
603.33
546.28
489.61
489.47
457.47
508.99
566.62
771.66
728.34
647.90
707.89
3520.95
793.83
736.92
721.45
698.00
629.11
575.65
427.87
662.43
581.83
664.83
646.83
683.70
1435.83
735.01
531.61
639.07
584.50
677.61
688.65
783.74
874.20
891.63
843.65
710.21
426.59
725.21
625.53
429.79
495.96
622.27
656.80
737.48
425.68
819.75
973.85
793.05
397.78
3321.74
753.16
798.67
927.94
1168.52
1143.57
1078.59
776.67
809.10
842.11
661.66
519.57
3628.36
447.99
532.69
558.44
385.94
456.82
496.69
506.82
620.15
585.76
660.26
724.91
828.03
1483.39
1039.69
792.72
645.14
459.18
408.02
497.68
550.37
519.02
504.95
503.34
662.10
3294.82
783.37
505.45
444.97
632.14
467.88
445.44
450.30
500.18
559.01
502.16
452.46
442.65
1623.40
753.57
753.06
732.90
581.50
657.81
634.78
662.53
736.85
742.96
711.19
686.29
748.28
785.59
676.54
572.81
604.85
566.45
618.80
648.81
735.61
641.91
661.38
551.97
605.09
3341.53
761.57
646.58
613.55
584.91
498.24
430.78
461.01
433.06
493.84
629.41
657.64
575.57
1716.29
578.52
587.64
607.39
748.57
720.97
779.57
767.72
762.53
619.49
562.19
483.63
408.41
555.98
546.89
711.75
833.25
774.16
742.76
629.29
676.64
462.08
444.43
393.51
504.96
3325.15
613.83
596.49
673.91
622.95
639.96
583.77
635.17
612.67
575.48
607.19
661.66
628.95
1726.15
884.40
1160.99
1083.07
966.48
527.15
704.99
825.64
433.13
411.54
506.53
629.54
2167.12
806.62
833.80
670.39
614.73
456.59
403.62
467.06
471.28
412.58
531.16
480.61
591.58
900.02
815.53
841.96
811.45
745.67
577.27
460.85
439.78
446.35
402.34
421.88
616.45
597.79
832.26
840.35
858.85
644.07
600.43
489.68
569.96
483.66
475.27
454.41
523.99
588.58
3442.18
972.92
952.64
788.69
635.15
567.37
512.25
526.27
544.44
578.90
519.66
378.07
507.42
1191.72
795.85
596.96
505.48
396.93
480.28
576.80
727.83
585.54
510.60
465.24
402.86
486.24
649.30
859.26
1038.59
915.38
889.80
670.55
693.72
471.37
503.08
465.97
548.85
579.67
2174.59
564.57
565.47
503.58
681.85
566.26
719.12
520.79
544.47
530.89
699.59
681.06
508.21
762.67
532.45
532.30
557.69
508.84
490.31
403.22
467.32
476.40
550.28
583.39
703.64
789.54
812.88
665.54
637.17
543.76
541.83
532.02
601.05
750.31
777.35
665.30
667.85
466.67
3302.58
548.10
683.66
703.47
883.21
854.70
785.59
633.27
476.17
473.71
454.49
520.38
478.59
1042.67
687.70
616.72
672.77
626.80
717.73
667.87
740.98
559.64
560.52
549.92
765.05
647.21
987.13
713.93
662.19
588.71
563.16
438.45
463.42
464.01
564.81
542.47
561.79
498.73
646.41
785.35
786.00
745.61
763.48
702.26
588.38
389.77
409.79
450.16
556.90
425.20
637.55
3225.91
746.17
645.82
584.27
426.21
390.64
502.89
620.98
552.22
578.82
643.02
638.47
613.20
1692.47
688.86
676.64
736.56
720.36
744.44
850.14
672.63
636.19
480.32
478.15
611.78
654.63
596.31
565.62
531.54
695.92
696.41
593.73
476.36
483.02
452.41
426.53
494.93
534.96
3276.96
703.13
659.33
656.49
586.92
805.24
726.83
923.31
868.88
895.92
577.76
468.82
470.62
1688.40
584.57
663.41
671.98
593.04
436.13
466.74
446.37
468.60
481.22
497.53
461.92
471.77
620.28
746.17
949.60
980.29
810.45
638.59
474.08
534.92
634.49
805.84
851.14
871.57
3125.19
787.27
474.26
521.66
734.09
960.39
864.18
496.41
581.14
639.19
618.82
768.55
694.19
1874.48
715.30
730.07
680.79
739.82
613.73
663.63
556.63
551.79
599.74
552.01
499.58
606.86
785.83
661.39
540.25
516.96
483.76
516.98
515.37
579.71
534.45
643.74
638.26
723.71
3240.38
938.01
783.08
761.64
625.66
643.22
561.99
636.52
559.82
619.54
586.09
588.99
414.84
1655.86
463.78
437.77
449.28
517.62
538.69
650.56
650.21
665.91
577.04
620.64
457.61
470.10
578.39
575.49
546.25
596.32
523.22
514.60
616.69
809.48
745.17
752.89
677.15
597.60
3142.14
653.67
737.21
765.05
645.19
645.72
596.18
711.33
667.32
740.87
721.98
628.08
524.45
1615.47
577.87
710.00
781.95
852.48
669.01
658.57
551.26
534.82
451.11
405.49
477.44
656.24
732.44
705.57
701.57
651.63
505.47
502.96
450.61
405.19
535.07
629.22
553.63
550.09
3144.15
697.31
605.78
718.01
632.89
647.56
593.61
734.02
646.00
606.49
411.35
453.27
475.75
1691.60
525.52
537.90
674.27
685.00
581.12
621.00
590.18
639.05
527.71
652.66
610.42
647.62
753.08
771.07
965.90
1265.75
970.91
551.47
1046.97
1039.22
435.17
659.73
667.73
761.66
1143.53
1241.72
1422.07
1442.67
1159.06
752.19
480.64
545.24
797.49
782.93
462.14
436.61
573.76
721.40
618.00
659.70
554.01
548.92
532.40
574.47
513.76
495.17
708.46
406.86
3003.86
813.41
524.00
542.24
699.99
704.99
572.74
390.79
433.29
528.12
509.36
591.64
541.35
1731.95
605.40
623.68
733.00
715.52
708.77
616.39
560.24
602.31
647.82
850.49
738.74
738.78
671.40
554.59
518.11
526.59
489.66
495.64
404.68
505.98
609.66
819.04
911.86
879.06
3191.68
835.36
529.40
439.58
459.89
430.90
439.65
499.76
448.95
561.43
499.89
566.09
559.39
1731.31
527.95
586.71
695.18
846.82
657.02
615.78
490.75
482.04
509.42
727.42
651.12
708.59
890.39
928.88
712.99
647.70
593.81
548.59
474.88
447.06
524.13
452.27
512.93
565.94
3111.78
689.33
609.34
566.86
649.06
657.92
609.07
536.48
621.29
660.22
564.55
658.21
714.02
1779.31
696.21
705.80
642.00
657.41
489.38
570.15
475.33
600.79
525.59
554.08
506.22
536.02
650.26
629.51
614.32
653.16
561.77
648.16
756.53
816.13
720.74
773.68
562.65
653.06
3046.52
565.46
450.91
506.02
553.48
658.57
570.70
671.22
577.98
696.18
674.63
653.79
481.56
1797.41
784.62
865.29
678.73
618.04
488.77
423.43
458.70
454.62
430.28
697.22
970.70
1112.15
845.32
648.49
1693.33
1653.34
1051.07
506.46
534.54
645.95
726.14
963.70
1122.19
1099.04
1014.30
962.90
864.76
806.36
611.65
598.48
509.57
702.81
682.34
647.94
504.81
621.42
1146.06
742.92
538.86
638.48
464.33
508.51
500.08
619.84
707.74
840.22
779.54
773.27
576.56
673.67
513.84
458.78
438.89
479.46
470.45
434.67
482.73
606.93
583.92
541.20
561.94
3129.94
613.29
755.85
697.79
777.46
890.11
1145.46
1105.70
925.04
611.46
530.60
495.75
749.55
591.58
470.32
475.91
531.08
464.00
477.89
475.70
592.64
699.58
842.93
691.29
669.26
3119.94
583.93
565.40
615.22
562.48
620.07
594.33
695.76
716.79
816.91
734.44
667.17
528.37
1801.08
476.53
405.09
504.36
592.20
624.37
661.51
657.90
707.52
671.99
691.63
709.20
668.89
701.68
712.43
719.13
984.68
984.15
961.76
630.41
487.90
1005.88
733.40
539.53
663.10
2037.06
586.51
548.48
545.15
487.80
516.92
612.50
682.66
619.38
633.95
587.20
640.56
622.73
996.89
694.29
733.63
686.46
715.40
650.37
653.07
460.01
491.20
525.91
629.27
798.02
1036.07
1138.07
981.50
498.82
624.21
977.43
821.20
421.70
625.26
747.14
982.43
913.04
754.18
2140.92
786.12
742.84
659.32
424.39
564.09
451.22
519.88
399.23
431.79
455.87
578.15
469.89
856.22
675.29
660.97
597.05
669.76
705.84
732.88
669.49
671.19
660.64
642.83
484.99
545.92
659.06
700.09
632.74
524.71
540.91
583.36
572.54
746.16
738.60
883.56
781.71
863.96
2887.86
658.74
563.03
756.74
693.04
823.26
696.41
640.21
531.99
501.64
415.62
442.40
473.70
1823.46
540.18
450.13
560.30
666.80
671.29
640.55
668.24
672.36
547.11
512.97
545.21
578.13
600.07
584.80
489.39
626.32
572.92
598.54
564.47
548.56
442.93
517.07
511.08
486.77
2827.80
612.92
714.30
780.29
770.28
871.43
714.45
571.81
507.38
521.51
515.76
526.09
535.70
1840.76
724.19
804.41
697.25
742.62
691.94
668.68
637.39
614.17
683.20
654.03
674.42
767.08
1078.09
1050.05
837.20
768.80
636.03
657.37
567.67
499.33
348.38
488.95
553.96
568.42
1030.17
414.07
466.47
553.78
447.45
524.26
460.48
529.24
494.29
597.79
667.62
655.58
643.89
843.47
732.94
623.22
569.77
516.52
458.74
506.76
569.36
809.32
839.43
882.79
818.02
2976.62
718.07
823.18
729.32
811.21
711.69
693.07
607.10
576.72
509.59
407.52
422.47
522.43
1219.54
733.25
669.23
770.77
701.98
662.55
625.82
519.67
438.96
535.94
458.23
584.18
550.33
699.84
632.14
700.31
669.63
674.04
724.86
739.94
557.13
656.84
605.36
603.44
603.40
2952.14
759.13
949.71
854.23
881.33
543.77
566.54
514.14
532.55
480.12
647.04
720.84
939.93
1415.51
737.22
625.63
548.00
487.44
463.85
548.14
491.72
522.56
551.81
886.38
1344.15
1174.37
1007.29
621.65
538.19
548.87
713.21
702.40
717.73
744.65
738.87
764.22
918.69
1041.78
1404.75
1061.87
807.75
535.67
1067.08
1431.40
1175.96
797.24
530.44
456.48
541.45
530.23
660.74
494.92
509.52
505.98
558.97
589.07
568.22
489.82
624.93
564.23
626.70
602.87
2985.93
664.40
714.08
702.71
746.51
755.29
775.96
655.18
747.13
720.07
762.40
826.74
864.17
1226.79
550.64
515.51
526.34
607.24
860.33
694.08
731.78
596.92
443.33
461.97
744.08
831.78
630.12
558.93
532.30
523.25
771.83
898.54
916.52
794.25
662.43
570.62
631.30
507.38
2845.05
554.64
470.69
497.98
562.82
599.35
530.19
556.88
631.32
501.24
543.04
528.27
589.85
1184.78
629.52
601.64
686.54
679.10
739.30
617.56
643.42
635.58
675.89
671.87
621.03
592.78
981.83
995.65
1033.44
799.79
753.57
680.95
871.19
859.26
843.57
726.53
591.88
555.65
2820.30
417.27
516.45
496.76
427.46
383.70
479.15
464.62
452.20
437.72
556.84
455.37
554.65
1193.68
619.35
516.66
597.87
680.89
756.87
704.15
725.13
650.53
657.16
612.66
782.56
795.96
1078.73
1029.63
1109.06
851.86
701.53
566.61
483.63
447.64
501.67
421.87
504.01
451.78
1824.80
550.54
700.50
674.17
838.19
844.18
870.81
598.39
554.17
483.27
644.55
604.08
629.00
805.65
732.39
671.54
558.62
664.85
992.42
949.73
765.63
612.28
620.22
628.30
721.34
633.57
672.52
519.33
447.17
436.50
525.41
570.17
625.52
647.77
725.94
628.55
520.61
523.58
2713.60
639.05
668.49
580.28
632.96
538.43
724.87
771.49
1087.67
807.16
593.03
499.67
455.75
750.55
712.76
510.51
504.19
536.14
645.33
650.49
731.53
659.32
789.15
529.71
591.89
598.73
818.07
783.43
879.05
714.79
624.08
396.05
584.79
475.74
641.40
612.59
552.35
514.63
2710.74
715.78
702.40
439.00
776.38
575.91
479.70
729.20
808.86
719.10
722.11
616.11
744.98
1400.72
852.54
738.12
860.14
832.74
793.81
684.24
704.55
683.65
567.57
524.76
597.17
581.39
654.39
535.28
660.99
558.13
627.84
686.40
743.80
751.19
731.48
574.52
590.21
498.04
2697.00
483.10
508.93
502.96
726.33
753.40
747.06
803.79
886.26
742.22
652.78
625.32
613.65
1038.41
454.31
463.15
468.16
506.40
487.13
557.14
593.33
562.07
621.62
552.37
677.16
537.32
815.13
691.04
650.00
573.69
574.45
539.84
658.30
627.71
670.90
599.12
613.04
643.58
2575.79
722.04
712.84
624.42
704.93
606.52
580.48
607.68
726.03
827.58
974.35
1053.19
1093.19
1048.54
804.17
751.03
520.03
672.48
735.54
474.02
716.34
739.82
761.27
622.83
510.45
2688.16
704.96
673.38
670.84
650.18
654.75
733.42
810.84
797.89
721.03
544.68
468.70
397.63
1819.18
406.22
473.28
466.04
487.22
477.45
500.85
412.79
685.48
882.86
1111.76
665.50
643.86
351.53
445.26
469.40
675.32
721.53
835.71
712.85
642.31
606.19
519.74
570.29
583.59
2302.84
736.96
734.12
779.88
712.31
627.36
432.38
439.89
498.20
500.75
507.71
488.17
556.50
716.92
648.67
816.90
780.50
718.66
470.74
614.61
633.02
838.17
772.80
805.26
746.01
803.14
891.99
737.45
485.40
488.08
563.56
814.39
805.21
816.61
661.84
480.36
443.48
493.17
2565.37
694.60
756.37
669.73
567.51
502.49
501.22
575.87
667.95
676.80
651.60
706.22
583.34
1867.72
632.61
693.59
508.32
632.31
541.83
632.47
702.63
859.78
819.25
726.92
558.13
523.70
596.44
547.08
528.31
631.70
668.97
636.83
627.97
689.84
602.05
652.41
649.20
647.70
2520.73
759.50
611.76
701.09
728.91
872.89
793.61
809.29
916.67
913.87
685.08
580.63
540.37
1840.83
608.92
729.42
459.13
521.09
628.94
613.10
508.85
506.83
481.14
561.86
532.93
591.15
796.02
970.04
874.19
849.52
605.72
715.38
758.02
814.19
763.26
727.56
670.68
590.07
2484.66
471.73
499.92
464.92
516.23
593.52
594.95
606.75
482.71
567.89
509.48
659.37
645.29
1870.41
616.54
736.78
658.74
661.99
591.06
648.60
522.61
591.80
691.23
750.37
621.09
611.04
601.44
604.81
600.50
743.52
797.34
867.28
724.97
664.47
516.68
536.72
446.20
406.40
2471.98
412.85
341.82
480.44
579.60
592.34
539.20
585.06
506.77
616.27
549.63
611.98
498.55
1912.68
641.21
650.92
588.15
594.11
558.14
592.43
817.45
1018.36
900.36
919.01
784.06
636.32
581.79
642.57
739.81
834.29
639.51
441.62
402.16
627.15
718.72
849.24
864.33
894.00
2559.28
892.66
628.93
717.42
760.78
708.24
814.03
895.85
778.84
542.37
946.49
1714.14
1504.25
815.75
530.09
784.53
782.89
901.06
893.99
747.15
627.13
573.51
488.37
658.36
696.53
2486.49
742.07
620.33
526.87
499.67
424.76
482.31
433.81
717.09
700.18
672.91
646.56
739.34
1322.19
885.79
893.72
892.21
794.53
606.57
458.61
497.24
398.09
463.96
515.11
536.60
648.46
940.75
763.75
757.76
453.26
485.03
512.37
633.94
552.77
595.80
630.45
581.59
650.02
2607.41
766.81
900.36
691.55
678.06
597.13
608.44
582.49
797.78
590.61
638.18
540.68
564.12
1092.48
618.95
640.89
580.05
435.11
529.41
524.76
586.93
607.41
672.59
522.94
433.84
388.60
494.19
471.81
578.76
524.76
770.98
826.48
783.08
575.61
501.50
491.38
855.30
962.49
2767.51
918.67
737.22
606.95
638.11
706.41
719.38
568.74
453.09
395.57
408.97
432.93
368.37
997.50
500.02
430.91
457.43
552.25
545.14
418.60
557.12
621.35
632.57
580.01
864.31
968.57
1168.83
868.22
611.93
397.81
547.60
478.67
734.54
888.84
893.76
878.97
676.14
553.70
2477.03
817.48
850.96
828.45
722.39
607.01
617.28
672.98
657.99
587.05
681.63
641.01
835.82
1353.13
796.96
713.63
610.26
454.64
535.33
457.70
487.74
423.05
525.97
573.95
779.29
823.77
1021.66
908.49
806.59
640.09
692.68
561.68
538.51
405.51
428.65
436.17
492.19
537.84
1895.82
517.76
614.82
652.64
741.82
689.44
798.18
960.29
994.20
760.93
596.38
419.78
416.48
496.80
566.78
632.32
803.98
696.34
684.02
683.14
676.49
600.43
615.70
490.81
608.23
2306.98
678.67
733.71
637.28
618.90
654.57
593.11
580.96
470.83
440.62
608.51
815.25
787.10
1941.54
546.52
514.34
421.55
480.23
447.96
620.88
607.58
687.12
678.03
749.62
731.70
929.47
1028.46
1132.13
1004.67
1079.47
932.74
623.65
452.75
526.72
475.08
375.17
404.29
456.95
424.27
435.81
439.23
440.65
556.48
710.02
681.42
788.81
776.01
883.79
886.18
790.93
2320.86
489.88
466.44
557.89
594.88
820.12
865.45
985.80
947.04
770.39
420.77
535.36
396.38
1880.67
567.96
522.12
514.64
571.24
584.23
788.71
783.94
1016.15
867.03
551.10
440.13
2452.71
392.90
653.29
628.84
586.49
550.03
912.40
871.39
762.51
444.25
422.23
442.20
578.55
1199.32
681.43
712.04
839.31
792.30
738.95
670.28
723.79
573.87
554.18
520.48
687.04
607.34
975.80
873.73
778.99
658.50
630.94
559.38
417.91
340.79
448.45
305.01
515.71
493.17
2396.47
760.35
839.07
699.01
559.34
569.85
791.29
777.80
894.32
682.80
670.10
552.65
653.56
1326.42
769.97
719.00
766.84
746.51
630.29
468.50
509.33
374.89
507.83
413.13
570.26
534.84
702.46
615.59
711.97
628.08
579.10
525.72
464.59
421.66
456.75
392.53
481.41
558.59
2281.20
880.84
896.20
526.17
427.45
414.64
482.45
679.19
890.38
960.74
1046.78
879.95
826.04
845.75
556.10
338.67
361.07
399.16
368.90
406.08
501.09
525.68
594.28
471.93
393.56
386.84
545.95
484.27
577.45
588.84
625.46
590.14
668.41
623.00
709.51
775.99
918.20
696.28
2371.19
535.49
424.91
550.61
707.98
671.49
705.31
588.53
613.23
409.46
514.78
400.79
493.56
1153.39
632.31
623.95
701.24
753.94
683.65
584.93
760.32
672.19
783.57
659.03
793.49
827.07
1003.43
787.22
738.98
420.28
439.57
339.70
425.55
427.48
398.15
505.47
579.15
640.84
2024.10
699.12
577.59
339.88
395.14
520.90
653.89
858.49
951.00
813.13
747.08
681.26
565.94
802.65
726.48
708.80
605.04
550.53
618.47
479.81
478.44
422.46
491.96
489.27
589.67
562.55
864.30
820.96
769.51
717.27
662.52
514.78
525.46
512.33
561.07
524.33
514.32
565.07
2111.35
751.56
820.54
727.16
542.79
370.18
489.70
477.68
639.88
653.02
690.16
695.07
761.96
1449.92
933.00
680.81
439.13
393.07
460.10
498.71
696.69
749.72
820.90
712.62
687.33
546.41
729.59
487.63
554.70
536.69
386.01
507.65
423.50
579.71
617.21
498.82
538.54
610.15
2084.51
504.27
456.49
748.87
882.38
907.79
867.95
773.58
793.02
741.44
655.42
399.27
451.82
1143.08
507.44
433.31
520.74
671.89
872.39
916.41
848.78
462.36
565.35
590.70
454.16
350.19
773.92
542.45
631.01
646.61
788.05
786.16
857.04
789.45
657.05
552.24
406.11
351.03
1999.32
644.90
854.20
865.70
934.62
793.48
837.12
686.53
815.58
745.67
737.69
557.75
612.28
1112.19
444.81
409.28
489.38
514.30
648.11
648.50
620.99
473.47
579.83
580.79
511.46
360.31
559.67
426.69
412.52
420.31
540.22
548.65
541.64
513.64
599.71
613.85
696.86
546.93
3701.21
761.23
686.26
684.59
810.49
782.84
737.57
644.04
697.79
434.64
402.83
391.92
418.57
1169.02
663.98
748.03
896.44
777.78
812.12
763.42
758.60
593.35
583.19
472.96
484.21
489.99
648.15
529.56
546.05
571.47
604.25
649.72
707.75
755.09
862.57
776.33
700.84
564.05
1994.27
566.08
715.54
733.45
802.76
872.27
867.13
551.96
553.30
559.28
474.52
369.12
382.99
1113.48
579.93
685.29
831.81
845.27
872.74
892.93
509.08
388.54
596.54
377.91
467.05
568.45
766.87
691.47
683.74
400.07
382.00
420.53
457.01
385.37
470.85
526.79
780.16
907.64
3834.72
1114.34
1225.97
1211.39
1156.64
662.59
388.14
415.49
369.62
456.09
500.25
515.92
1926.15
514.81
586.53
478.61
514.07
559.19
761.53
791.54
992.69
1065.51
842.64
475.13
511.12
769.85
431.12
462.53
620.43
577.71
606.55
687.95
814.61
778.05
832.31
628.76
604.43
511.46
681.61
619.10
780.79
696.23
683.81
597.82
555.74
564.02
715.86
609.63
629.02
454.21
3819.74
554.72
469.57
504.42
655.72
711.45
772.60
701.58
754.71
537.07
485.18
537.75
613.75
1152.31
641.90
732.91
630.16
586.86
610.29
632.38
687.00
562.89
466.08
433.07
517.32
409.47
495.92
509.24
550.06
493.84
591.39
480.64
488.25
442.34
469.56
580.94
597.05
651.82
2015.16
795.90
791.44
668.86
733.42
463.43
370.25
349.03
519.40
645.38
719.57
823.50
991.40
1438.15
808.22
541.94
589.50
476.02
491.62
418.86
559.83
557.46
601.62
518.91
655.08
1723.28
770.79
697.71
852.09
611.08
590.88
626.80
738.71
604.81
753.25
714.67
1017.05
1018.21
1199.13
613.70
449.62
676.25
562.40
355.70
401.83
349.50
451.76
467.81
632.98
638.35
3828.72
819.64
909.71
839.45
772.06
643.76
653.47
514.77
482.86
462.07
459.84
466.16
681.59
1394.66
950.21
1058.95
1136.06
909.60
558.29
749.08
395.83
479.78
812.73
988.03
1209.79
2268.29
1071.56
737.23
577.59
525.87
514.06
385.26
404.29
385.33
326.15
403.12
432.43
1701.68
469.84
416.82
617.38
594.83
607.21
545.26
531.37
590.08
707.88
676.65
643.79
512.88
1936.30
606.07
633.23
655.23
874.01
793.15
823.99
588.37
606.79
622.81
663.45
555.03
614.23
645.12
519.67
487.85
760.12
685.25
758.09
533.78
482.27
657.80
780.63
694.33
631.71
1423.47
627.26
476.07
482.95
503.87
533.25
482.52
528.10
531.08
633.17
572.53
645.73
648.58
2095.51
775.41
768.96
557.69
583.90
518.76
537.89
454.46
641.68
705.42
745.06
703.93
437.85
506.68
407.96
471.10
809.75
703.02
658.10
582.84
564.06
551.47
699.16
557.31
638.04
1518.27
752.89
660.80
668.15
607.83
681.06
709.17
720.15
686.47
831.42
755.42
787.57
652.56
1080.67
476.35
520.08
429.43
432.06
562.09
645.59
563.00
711.86
581.12
752.25
689.16
840.31
976.50
808.57
642.90
559.26
522.15
611.17
409.46
413.35
481.64
424.21
424.54
730.51
1537.56
1088.02
862.24
828.45
616.06
673.02
519.46
638.02
628.26
694.16
571.95
581.40
500.53
1885.72
424.43
490.59
531.31
577.66
650.40
711.96
629.95
473.49
328.57
503.21
375.36
493.16
602.16
664.14
639.22
748.16
741.88
710.50
538.50
597.59
554.72
750.58
827.13
828.19
1365.45
472.49
409.15
457.89
560.64
708.05
768.82
854.49
865.79
1029.88
986.96
978.83
701.99
750.81
471.22
583.99
409.36
470.92
547.54
690.54
684.45
605.58
360.75
525.26
725.02
478.13
540.96
509.75
555.47
708.86
833.42
892.62
817.97
718.77
470.81
426.73
411.97
627.60
1338.56
963.51
1075.19
967.48
554.88
472.76
382.42
435.50
489.21
454.65
524.72
737.69
655.92
1003.52
826.31
773.47
635.49
612.94
452.81
541.73
629.11
672.82
588.57
673.35
533.18
542.23
561.91
968.77
1011.53
960.59
780.03
593.67
539.05
663.73
604.77
698.38
694.38
752.19
1354.34
623.63
662.70
790.63
736.18
681.26
410.80
720.13
646.06
474.82
478.85
455.75
594.32
1353.43
956.30
894.50
634.29
455.81
420.31
464.43
544.29
557.97
481.49
569.06
585.92
636.35
691.23
688.69
604.75
598.94
483.77
585.62
572.55
634.58
642.50
653.92
599.69
611.45
1352.49
667.63
712.15
782.71
703.65
713.92
629.30
654.89
535.28
546.98
443.37
550.61
600.94
1115.03
554.59
606.17
631.35
806.37
546.20
476.15
417.10
481.44
636.45
847.74
633.90
623.80
715.87
781.71
737.80
780.27
662.50
656.49
604.94
597.17
590.04
594.40
481.26
510.01
1359.63
682.48
656.28
641.72
619.82
562.24
536.80
604.22
615.08
632.54
518.90
551.32
547.12
1100.75
650.16
748.68
684.69
697.89
548.01
679.34
597.50
757.19
783.61
810.39
479.54
701.50
752.43
423.94
489.65
643.75
564.44
633.73
578.71
632.50
623.77
665.63
647.84
631.37
1385.96
597.59
436.17
491.74
653.53
964.29
1141.24
1227.69
790.89
592.76
381.13
447.80
465.91
582.50
381.26
382.16
493.58
661.84
788.49
953.34
810.74
687.86
434.10
483.97
471.78
3773.83
697.78
823.65
911.54
861.90
676.67
615.21
511.33
687.34
383.01
434.11
500.94
691.22
1376.11
454.62
518.01
677.03
854.61
920.22
837.65
892.56
710.45
808.90
614.13
684.69
546.05
815.25
559.32
548.34
644.44
773.97
718.47
833.15
744.31
894.77
693.39
817.34
615.37
3629.09
480.60
406.93
385.84
630.54
755.88
601.73
410.01
508.83
620.89
807.11
740.71
697.50
1418.65
794.80
576.45
554.41
370.33
465.46
393.75
537.53
469.79
465.27
421.53
567.94
527.00
446.30
469.68
697.14
773.12
768.32
654.41
596.02
379.18
523.96
461.90
486.22
488.43
3718.82
559.58
598.13
599.82
629.22
619.17
669.27
649.95
646.74
650.77
721.75
686.84
875.63
1395.69
976.16
821.61
662.06
426.61
529.38
430.49
540.34
573.38
640.05
483.31
624.12
507.05
678.53
671.75
748.23
736.69
966.39
737.55
479.28
478.95
766.25
654.20
388.95
499.23
3599.06
713.04
846.86
784.51
860.19
759.82
710.97
694.73
689.56
582.96
677.73
538.04
573.24
1294.44
625.35
698.07
730.40
669.75
638.30
595.25
600.18
515.44
491.75
519.32
626.05
694.20
829.92
589.72
552.67
368.92
479.48
552.06
796.73
754.85
709.38
611.82
602.33
517.43
3752.24
541.73
489.89
458.45
477.12
445.84
511.08
500.04
549.18
534.56
584.37
498.82
552.89
1275.07
713.64
728.27
822.72
683.45
702.58
693.98
586.83
542.02
523.94
423.60
469.50
527.69
689.89
647.33
648.70
659.34
712.04
649.17
745.74
824.66
759.38
775.54
835.45
777.46
3453.63
790.82
773.92
628.95
702.51
586.99
621.45
561.29
548.66
438.46
458.29
416.55
436.92
1216.05
530.78
566.89
572.88
528.25
626.31
470.99
454.80
463.07
521.77
484.71
710.55
892.99
1205.62
867.29
784.26
504.41
459.24
464.89
661.36
821.53
841.09
746.90
648.75
566.11
1972.64
515.60
600.75
446.13
539.82
572.14
606.64
488.47
511.54
475.44
518.46
558.12
621.44
803.71
854.03
959.63
1061.15
634.31
452.66
407.14
420.37
488.72
542.61
531.18
561.93
3469.79
550.13
549.65
723.21
757.19
801.19
757.58
585.25
620.79
649.69
567.04
662.51
578.34
1179.73
662.87
736.21
548.91
630.78
539.69
470.83
414.29
448.46
489.08
590.61
566.16
623.58
702.57
618.97
497.78
581.67
594.23
697.04
704.30
662.78
648.35
815.59
1089.78
1404.97
2629.55
901.56
430.88
451.45
560.72
526.24
429.56
437.05
400.30
485.38
432.51
663.85
590.52
669.07
600.82
558.45
392.98
408.67
398.66
410.04
496.40
536.96
593.30
604.79
537.68
3663.13
673.73
692.18
665.75
760.47
627.92
729.33
604.10
621.36
580.84
646.05
645.52
763.12
1158.86
708.11
522.58
483.54
474.67
613.12
570.11
667.95
589.82
657.27
660.93
676.26
599.06
786.58
518.51
615.95
669.78
700.75
712.84
870.21
763.45
645.48
502.62
470.50
381.42
3522.54
636.54
637.16
642.20
754.66
594.58
662.09
648.57
758.53
574.84
670.85
580.98
555.45
1310.42
633.99
513.45
540.16
524.83
656.15
467.72
529.65
490.17
567.44
508.80
564.36
575.36
825.39
688.20
719.17
709.63
819.81
792.49
839.56
576.84
461.40
360.34
380.26
422.49
3486.20
839.65
778.87
694.85
723.13
605.55
721.74
650.06
732.54
608.41
581.74
544.00
652.94
1179.98
741.14
644.02
611.76
497.52
513.04
508.02
560.50
356.41
482.82
506.89
646.00
585.76
693.00
621.61
722.02
664.58
844.81
947.67
1249.09
1124.60
974.90
500.77
1388.93
1710.96
1448.60
510.55
524.97
847.05
1186.71
1242.96
1057.02
798.09
647.00
510.32
529.51
433.76
637.59
556.58
519.96
427.72
412.77
470.49
556.77
540.68
697.39
526.52
482.49
539.12
3623.42
462.58
610.80
541.84
768.52
665.32
765.26
820.33
908.41
901.94
872.01
456.95
596.95
1477.32
414.68
660.26
938.30
804.57
818.91
666.34
685.70
749.29
736.65
558.72
478.31
412.02
485.55
443.35
531.04
542.92
699.32
580.57
705.17
713.38
753.41
607.16
732.96
629.31
3443.46
783.90
884.89
874.76
1020.90
787.03
659.25
445.46
436.44
427.32
465.98
429.20
463.34
1001.24
556.53
433.17
476.19
512.99
574.14
592.66
740.15
670.35
605.87
531.14
780.55
778.60
916.86
600.65
763.05
697.73
648.45
557.31
545.42
465.90
469.22
717.60
945.71
901.74
828.22
679.98
426.24
450.82
511.76
668.86
735.92
682.65
715.64
724.13
935.12
677.68
534.85
3497.00
464.82
499.73
599.62
497.81
528.05
508.26
708.17
603.45
606.77
470.46
491.61
471.80
996.60
451.77
634.46
573.07
718.28
671.82
883.58
874.00
613.61
454.18
640.78
614.42
556.47
618.09
524.25
395.16
490.73
473.48
550.39
502.67
852.95
763.03
901.80
840.09
801.75
545.99
593.16
514.55
695.71
841.83
1089.97
900.93
1055.50
992.15
721.45
490.71
544.28
783.51
1206.16
412.16
940.87
1082.20
1343.29
992.08
668.07
613.48
470.56
838.51
1351.51
916.64
1997.79
495.36
626.26
581.49
673.81
714.63
658.38
604.59
559.37
385.79
491.81
610.42
760.01
789.22
826.55
894.05
803.88
502.25
489.71
502.46
403.54
420.99
584.49
605.07
840.00
3280.50
1168.44
1024.61
832.70
639.48
545.99
435.58
534.87
442.72
489.60
569.26
839.73
871.59
960.81
521.69
493.80
419.05
442.21
480.80
605.14
552.41
587.55
469.15
490.64
463.13
3367.07
702.39
706.75
621.16
722.26
611.76
746.09
822.83
973.82
924.46
932.63
644.64
619.78
963.51
504.05
415.94
556.83
585.62
674.13
568.49
575.19
587.14
612.22
563.03
575.08
560.33
839.95
526.52
559.11
574.30
750.64
630.70
885.32
725.60
741.37
567.30
596.42
516.36
588.88
626.59
654.53
615.24
654.65
516.90
517.99
515.03
598.28
604.22
632.41
554.48
668.87
3295.75
661.86
662.29
676.29
594.23
695.46
725.35
741.01
664.53
669.55
496.94
402.57
377.00
1038.54
483.31
570.12
586.96
707.30
570.75
672.56
602.64
706.94
636.57
693.08
693.82
788.46
1007.11
802.84
667.92
624.52
579.27
623.35
618.48
746.87
605.05
622.32
791.26
810.81
659.18
822.00
570.77
498.83
561.83
479.15
438.95
516.88
623.96
739.42
565.98
601.64
464.46
3339.43
487.53
570.46
675.82
806.37
843.09
759.44
516.68
504.44
547.49
533.36
546.46
788.92
1385.47
861.68
787.71
764.94
564.89
570.98
435.36
492.49
505.18
587.81
520.76
515.72
487.19
714.86
508.87
626.05
537.06
651.56
617.11
745.25
744.20
718.17
625.91
619.58
688.88
3209.42
975.78
761.94
500.42
688.58
905.08
589.05
446.06
599.38
723.48
927.59
865.92
789.60
1263.08
774.05
548.09
500.13
551.64
824.78
891.69
784.09
468.85
521.48
463.66
489.57
469.76
726.01
669.55
726.19
619.57
755.34
757.77
857.46
717.54
546.92
364.79
563.47
599.77
3279.79
489.23
501.16
495.67
450.87
491.78
444.96
450.43
572.73
608.27
784.84
724.47
784.61
1319.46
773.30
638.44
583.22
538.46
652.52
576.91
603.16
471.64
688.45
512.88
673.08
630.51
835.65
607.26
631.84
512.76
542.87
371.94
512.21
596.61
709.56
607.78
673.16
580.11
3263.09
591.45
591.83
493.30
560.18
492.37
500.25
477.47
579.03
729.69
798.62
708.98
759.23
1396.71
924.70
847.98
791.20
629.42
601.98
506.20
490.94
385.44
587.52
637.96
761.12
701.48
835.81
654.35
701.28
602.35
634.28
544.24
573.41
462.24
557.97
541.04
457.12
470.89
3265.47
630.91
744.55
571.72
612.10
698.96
914.04
727.91
527.38
707.33
552.69
490.51
607.68
1125.01
656.93
724.04
1065.18
1092.36
1121.82
526.27
636.37
795.79
536.05
483.96
578.21
1118.14
669.78
670.56
772.87
694.80
643.61
636.54
564.92
553.67
679.10
583.72
613.52
522.72
761.26
635.61
647.47
584.70
567.80
461.83
477.41
447.11
642.64
711.21
981.30
1016.52
3364.65
736.62
587.36
470.58
512.40
482.18
611.99
532.25
471.16
359.70
738.56
836.74
962.68
1088.79
783.01
475.78
440.41
625.66
382.37
416.48
492.26
549.24
651.60
566.62
613.37
3163.70
673.15
506.95
666.35
480.43
607.06
520.34
603.89
621.01
683.26
646.27
764.76
590.76
1209.63
662.80
809.03
601.01
704.76
583.67
586.69
524.10
697.90
655.85
686.63
637.53
577.21
617.62
625.40
639.66
610.27
391.99
496.39
510.05
607.19
603.68
591.69
537.30
609.22
3073.67
818.29
807.22
765.53
647.97
613.83
533.37
556.05
466.21
535.06
566.77
702.90
660.00
1392.29
736.56
652.27
603.05
720.54
734.69
645.37
442.78
496.65
552.79
683.61
651.67
514.03
488.68
425.82
558.51
672.69
788.19
815.27
551.25
557.82
629.46
750.89
694.52
748.92
3069.95
740.24
570.91
571.77
612.05
692.41
640.67
609.00
476.96
576.50
587.94
703.16
584.28
1093.77
451.65
533.59
535.59
1083.78
1148.90
1012.45
616.64
556.52
515.56
481.47
464.46
1069.11
635.13
847.39
784.66
763.88
601.47
574.13
564.41
605.79
527.68
624.17
608.65
582.35
553.35
748.13
619.63
522.15
700.62
961.46
912.56
889.58
729.20
760.62
658.36
755.25
3053.17
766.73
652.93
748.83
650.58
672.55
486.97
497.96
598.45
495.14
547.92
754.89
828.06
1412.96
888.67
663.74
502.39
505.91
518.39
662.55
541.16
593.56
617.45
691.93
680.23
776.93
756.68
622.19
591.58
575.57
482.84
588.92
595.84
558.74
480.31
518.35
397.50
659.81
2980.86
820.78
843.63
949.61
770.73
664.46
510.47
549.51
580.48
572.08
560.66
482.26
431.63
1018.65
460.18
544.75
474.08
595.57
579.57
849.41
860.03
1052.58
692.43
446.48
594.09
533.19
505.26
441.80
508.85
677.26
642.28
737.61
752.24
947.33
787.67
765.86
590.73
607.09
2963.34
562.66
641.85
755.93
673.14
730.50
666.08
676.56
528.93
560.68
491.15
595.13
546.28
1195.50
532.97
501.84
440.44
631.82
641.07
674.10
569.49
571.21
605.86
580.75
623.36
717.68
813.38
733.88
527.39
707.84
867.38
722.98
517.94
878.02
446.35
580.69
690.06
748.76
2937.08
819.75
811.41
927.03
1079.11
1406.87
1346.84
1275.08
752.69
555.41
1128.30
1138.22
1446.99
469.56
435.02
529.62
649.24
685.92
633.05
651.09
767.78
761.10
607.26
648.70
2914.33
688.63
581.99
703.58
625.88
751.82
689.98
688.10
578.25
594.91
581.58
658.57
712.53
1322.95
672.79
620.24
669.03
659.12
542.30
662.14
722.08
845.88
761.70
786.95
578.42
501.13
536.79
464.75
464.24
483.63
500.13
695.43
530.14
549.57
555.66
625.14
582.72
651.85
2949.01
666.38
498.71
543.73
552.91
618.51
539.44
710.81
677.10
759.83
722.99
837.91
848.00
1375.43
510.58
440.58
440.82
584.03
621.44
777.63
850.72
930.45
828.15
885.39
662.74
660.52
793.93
879.91
844.93
686.47
493.00
548.78
412.99
481.29
476.71
442.85
444.74
466.90
2869.07
687.71
638.06
746.57
647.61
709.08
713.32
693.33
657.32
738.09
661.63
733.44
588.95
1225.02
684.41
594.95
458.78
518.74
439.74
460.39
436.53
541.45
551.46
704.54
755.88
886.77
990.61
754.58
484.11
513.14
472.16
799.41
935.77
983.59
642.34
514.10
503.30
544.03
2951.26
759.80
715.74
678.78
581.14
546.94
513.85
556.32
519.73
654.56
636.81
717.53
509.77
1157.27
703.06
905.11
701.51
699.25
549.74
551.22
465.64
466.51
509.44
605.50
545.01
549.00
632.44
636.82
615.21
643.63
693.10
776.84
578.41
695.34
664.46
737.12
632.34
651.96
2827.60
682.25
600.13
577.06
549.28
595.21
470.54
517.66
468.19
551.86
562.92
611.69
530.54
1294.27
617.07
711.70
735.90
857.95
809.73
826.68
754.82
692.11
539.52
579.58
573.41
618.26
891.27
911.36
702.49
644.37
519.82
450.56
445.42
578.16
477.70
536.69
575.89
635.42
2872.79
815.50
628.02
596.19
521.28
650.04
537.09
668.38
745.97
758.99
534.52
503.37
476.88
1063.48
544.75
685.79
553.70
675.37
688.49
765.29
762.99
804.60
770.92
887.37
811.34
856.78
960.47
936.06
736.22
973.41
901.82
910.37
668.19
567.33
479.38
499.39
500.39
568.03
2771.02
671.56
474.62
565.09
499.06
557.38
525.70
636.30
557.64
498.01
515.71
521.00
512.11
1111.53
548.70
632.60
663.79
762.31
652.04
685.93
512.10
615.06
529.74
682.85
575.10
627.32
640.08
587.91
519.87
599.02
600.80
656.67
580.86
640.03
583.21
649.25
641.89
882.92
2854.58
1112.23
972.16
781.09
491.62
446.85
465.31
513.28
550.86
568.22
462.47
515.35
577.90
1154.18
888.08
1064.99
894.51
982.43
894.78
963.40
860.15
926.41
688.91
548.18
581.53
2304.06
511.13
477.96
468.91
751.27
930.73
902.91
690.28
428.70
494.21
630.77
635.56
733.89
965.71
877.34
797.56
777.43
556.99
525.40
569.24
559.14
649.38
720.97
653.00
699.57
2812.09
692.45
564.93
605.36
648.12
743.90
745.21
761.56
647.54
736.78
610.28
544.05
530.78
1194.26
583.42
701.79
628.25
664.03
693.89
791.41
842.66
957.30
805.32
746.17
530.63
529.81
636.75
690.10
667.80
547.95
444.83
503.74
551.11
637.19
661.60
982.00
984.17
1008.20
2777.22
540.98
497.91
525.73
455.23
577.56
575.35
731.28
745.13
842.97
642.81
571.57
653.65
1512.23
1121.08
1161.11
1034.73
1119.92
827.84
666.41
529.28
504.91
417.59
559.27
556.02
710.26
508.71
503.01
566.61
628.53
539.08
481.77
512.52
585.11
588.62
622.42
572.44
629.41
672.06
613.73
546.88
686.66
725.99
846.92
784.84
764.88
649.48
796.83
625.96
779.60
2762.00
770.45
675.72
806.92
719.97
789.38
699.61
626.84
504.46
638.87
839.47
974.04
701.26
1152.72
519.45
461.35
457.80
479.66
479.32
674.05
601.31
787.93
658.65
848.59
675.44
612.38
602.43
667.09
608.82
840.48
845.59
782.17
636.34
591.42
560.37
531.16
521.66
443.88
2796.07
485.36
440.51
570.11
497.68
450.18
470.92
525.14
533.08
629.39
597.68
652.36
582.82
1191.41
612.81
645.39
603.46
673.20
612.97
738.31
717.60
808.27
693.05
742.32
720.05
808.24
780.16
820.59
651.72
687.06
572.43
630.92
543.88
697.09
738.57
757.50
691.38
683.81
2654.21
708.44
637.76
679.94
601.15
604.95
643.31
684.62
737.70
817.72
583.25
501.60
513.42
1029.14
501.15
575.00
575.12
789.68
719.39
758.81
559.41
431.37
465.48
652.31
615.01
803.86
777.95
741.16
609.29
646.21
486.46
654.73
904.71
1266.47
1204.04
994.24
494.91
1028.60
1437.47
368.97
639.11
1020.19
901.81
937.78
802.42
832.06
639.37
595.18
600.88
812.69
675.55
759.98
542.30
583.98
483.63
507.27
526.55
509.77
534.14
487.34
556.45
624.31
610.38
2664.23
622.31
622.70
658.81
770.59
680.00
693.50
744.45
736.33
711.15
930.02
951.58
887.44
1393.05
737.08
600.61
578.92
684.46
988.95
751.73
526.63
625.24
733.86
679.78
842.04
685.34
867.93
641.85
681.41
691.78
760.16
678.78
733.50
642.22
503.54
513.11
456.85
473.74
2676.15
525.19
649.42
645.81
661.27
594.51
643.99
640.60
674.36
637.96
797.50
656.14
789.47
1244.50
680.55
570.17
582.04
486.99
532.89
542.89
537.52
528.80
635.33
614.01
710.43
631.67
800.91
712.18
872.55
831.02
891.91
666.39
672.08
643.55
714.50
655.68
752.71
721.67
2740.54
701.95
679.68
629.62
617.88
492.21
519.79
455.48
527.79
511.49
454.15
522.24
589.39
1170.09
668.46
660.00
739.48
756.79
894.90
698.77
781.59
587.52
592.83
545.53
641.09
518.61
707.10
642.10
699.45
713.36
752.01
609.55
677.13
538.72
535.87
602.98
547.55
590.78
2585.62
772.60
878.54
821.09
863.85
488.05
508.60
421.83
506.03
627.00
823.17
865.61
937.89
1392.08
783.42
588.75
734.84
817.32
866.64
746.95
751.12
565.72
559.50
398.64
512.74
391.63
620.31
542.50
659.68
496.56
665.55
684.14
722.69
644.99
730.76
679.02
829.78
667.66
2676.01
552.10
542.76
627.36
807.53
930.81
1023.58
824.97
657.69
497.16
577.79
535.74
756.98
873.65
660.72
613.78
754.08
804.63
758.84
609.20
571.78
437.08
422.12
466.32
450.52
430.62
708.18
830.70
598.94
401.23
570.33
621.05
664.98
732.09
766.32
666.99
752.23
642.13
2631.34
781.52
783.22
738.47
776.58
664.00
554.31
420.01
447.54
467.96
586.66
595.00
559.32
1049.40
635.18
653.40
777.62
743.47
820.50
798.77
883.54
765.40
963.56
889.90
895.69
577.97
656.57
452.88
446.87
471.28
641.17
589.41
654.54
590.59
648.23
652.79
745.21
657.71
2504.89
620.98
691.33
628.44
658.94
525.65
633.04
584.25
690.65
717.07
713.78
728.56
678.13
1136.56
528.35
441.82
556.27
500.91
623.45
515.08
540.30
549.02
815.55
686.34
795.33
772.09
1013.64
832.79
836.31
707.92
479.82
598.05
505.80
513.14
642.97
751.77
720.09
621.26
2542.52
819.92
818.20
849.75
962.12
847.83
805.26
694.43
624.38
492.00
539.11
444.10
533.86
1120.47
689.36
672.40
713.77
651.06
474.61
458.71
459.63
467.70
747.19
846.39
805.84
683.59
938.87
759.03
841.51
680.67
652.78
529.97
578.48
483.42
563.21
470.19
637.24
701.26
2538.98
786.08
691.24
525.82
542.54
588.32
753.73
601.10
485.89
415.02
500.91
770.03
1111.32
1404.07
690.81
533.35
616.89
584.71
743.81
723.48
667.39
414.33
518.59
727.04
387.65
2356.92
765.31
515.35
445.00
470.46
467.30
631.95
991.95
1032.88
1169.68
1100.98
1051.30
694.12
698.82
522.07
533.93
555.39
589.20
535.29
702.54
618.01
656.95
613.03
723.34
734.03
2450.14
702.06
486.87
609.29
524.16
384.60
546.53
489.76
690.16
651.04
609.77
552.28
693.42
1061.82
912.81
750.18
821.77
724.42
801.25
887.66
1036.22
1032.11
1007.24
783.38
746.87
2407.27
481.07
419.63
408.64
421.43
482.04
441.87
392.12
401.08
567.45
520.50
622.60
636.73
1451.46
753.49
744.27
699.34
742.25
705.92
654.09
613.97
690.71
623.27
695.99
764.63
1047.15
1043.89
1017.57
811.83
762.99
598.57
596.41
558.91
610.31
612.74
569.12
517.69
530.13
1835.10
535.86
425.35
446.84
478.89
701.38
542.75
716.40
579.26
628.49
634.13
649.20
527.50
842.91
502.28
616.50
555.49
671.66
645.66
736.29
664.11
629.82
539.63
630.65
560.65
643.45
719.86
781.93
896.17
1179.57
947.92
787.77
493.98
412.94
624.21
492.42
453.62
507.76
1819.39
424.81
457.22
496.49
567.01
730.64
710.43
847.72
690.42
713.99
619.07
707.56
601.05
941.70
753.83
797.23
658.99
877.45
856.79
908.19
729.13
528.62
724.62
566.13
512.91
895.41
1343.26
1629.99
1669.76
1427.49
801.37
470.01
1053.77
868.41
513.17
441.62
460.43
2435.16
579.74
648.04
683.74
769.90
601.87
684.77
642.09
927.78
803.71
823.87
711.85
585.33
1136.41
626.48
460.28
462.17
467.16
579.03
512.77
517.97
387.07
504.64
472.36
616.19
597.08
771.08
660.42
816.94
651.64
707.48
558.82
721.05
559.48
642.60
508.76
638.59
658.51
2405.93
870.40
965.35
762.31
670.32
564.29
626.12
523.73
558.85
516.91
647.64
543.98
558.75
1025.48
444.86
404.38
688.25
634.45
711.05
538.60
537.14
483.83
577.34
456.12
618.71
538.47
862.98
663.38
673.85
639.76
624.65
705.17
781.07
720.49
793.22
627.35
649.27
561.91
2356.04
554.29
560.46
456.87
575.20
494.74
514.76
496.40
530.27
466.87
575.19
565.81
659.80
1354.83
849.85
638.60
703.04
604.96
629.17
656.14
758.01
651.75
763.81
698.87
755.79
665.94
682.04
548.30
667.43
678.21
675.02
576.96
756.15
749.12
809.49
726.29
844.33
878.74
2545.93
683.79
508.63
375.70
539.15
417.03
588.91
536.43
672.40
601.74
564.97
365.42
480.01
1081.24
444.13
459.06
681.48
695.07
689.61
586.51
700.09
756.71
835.75
881.75
859.23
439.73
467.69
407.52
556.46
610.74
741.90
792.13
761.69
676.33
788.35
620.73
636.94
620.62
2263.00
585.59
585.71
838.60
1249.73
1102.50
1114.90
895.27
929.98
611.00
424.50
763.09
3365.31
1465.74
1006.77
321.29
675.05
810.08
1017.09
932.02
973.25
753.27
678.17
672.92
807.16
872.26
721.93
528.63
581.54
537.30
684.77
611.42
658.74
635.65
761.70
724.97
795.91
574.11
819.30
494.35
415.85
401.17
567.53
591.55
652.63
551.67
643.15
443.49
533.72
526.25
2197.69
577.56
687.96
694.53
578.24
421.05
486.46
625.60
674.22
700.50
942.27
977.16
1031.56
1463.66
828.78
675.27
587.50
523.18
596.14
590.04
647.56
561.51
507.02
364.13
403.23
1923.24
487.05
373.58
499.78
542.37
646.48
583.51
613.23
528.85
584.22
546.49
613.99
506.56
1244.84
733.22
709.12
703.70
879.00
766.18
771.77
800.28
790.94
606.22
523.91
390.01
462.34
547.84
700.25
820.95
804.83
716.93
773.72
668.54
636.69
382.56
454.75
392.82
719.35
2096.41
1076.94
871.14
792.58
617.89
566.74
577.30
666.80
541.77
570.90
509.45
634.03
539.55
1321.71
583.40
670.58
579.03
665.67
547.40
645.72
512.89
570.25
582.29
735.76
793.99
991.93
937.54
743.03
523.76
383.74
380.06
423.89
445.96
747.81
693.80
503.91
507.91
413.92
1993.81
696.77
764.87
784.45
643.93
667.95
556.64
654.21
522.53
715.07
789.56
906.93
690.61
1403.77
756.40
521.84
393.13
561.03
797.93
960.28
815.71
828.99
512.95
471.96
503.65
848.91
1093.67
1208.70
878.27
626.77
465.15
523.68
534.45
717.56
649.21
698.58
404.97
481.50
1067.64
433.55
395.73
437.28
445.28
462.91
391.41
543.43
574.98
668.51
644.57
526.43
516.06
769.68
693.67
834.61
755.84
842.17
613.02
726.16
644.15
635.69
628.07
701.43
634.48
2061.97
696.43
816.15
761.60
786.12
690.79
717.12
488.79
565.54
514.18
647.47
664.30
705.89
1291.12
817.28
645.77
747.11
711.92
695.24
553.20
374.00
358.79
544.42
431.90
460.99
518.00
729.74
772.67
878.05
796.70
750.04
550.20
538.64
361.64
466.70
453.55
469.39
410.67
3882.64
716.92
775.77
678.46
702.08
639.53
739.66
606.22
620.88
510.01
633.36
640.19
716.73
1354.54
800.43
625.01
771.75
752.06
906.93
761.48
842.33
720.47
740.04
523.46
562.63
671.39
859.98
808.13
827.56
560.18
363.59
563.60
1015.16
993.39
458.14
468.57
557.46
428.27
3986.53
617.97
693.60
670.43
758.54
694.85
708.54
658.08
662.58
584.07
623.28
590.54
688.98
1389.67
866.08
763.31
969.25
614.93
727.46
692.98
751.25
662.56
606.51
443.45
653.35
679.28
914.60
758.15
666.96
441.77
513.21
606.85
704.58
714.08
632.15
395.25
471.28
534.65
2010.89
713.32
819.49
651.17
664.78
504.15
459.57
334.40
487.19
496.50
801.35
651.00
830.32
1258.80
719.97
712.23
835.61
863.89
739.46
490.63
633.32
584.51
670.17
706.72
646.88
385.20
519.97
493.60
583.38
539.53
662.02
570.82
677.64
601.37
660.59
602.95
728.38
697.29
3911.09
642.51
431.54
490.62
539.60
429.10
492.22
648.29
821.67
695.30
699.83
529.63
666.78
1270.16
793.58
698.98
845.70
745.08
779.74
591.62
704.00
612.16
621.24
571.82
541.66
491.06
660.48
553.31
649.98
578.62
649.73
607.42
778.30
601.32
569.28
494.97
584.20
675.86
3651.31
732.54
743.61
573.02
650.40
547.85
667.82
546.84
627.69
505.64
577.69
510.88
560.66
1167.31
513.59
537.03
592.50
676.43
1041.21
1081.29
1026.11
428.53
500.80
562.41
825.16
1289.05
395.48
543.29
471.23
496.50
624.62
699.45
795.72
769.83
764.79
620.60
541.74
380.86
535.60
384.42
421.11
430.44
485.00
582.62
794.59
942.30
978.96
845.06
924.72
701.67
3884.26
650.89
635.30
509.02
595.53
470.81
462.65
350.59
472.98
506.55
612.56
724.63
808.17
1449.74
904.67
806.73
918.38
658.55
598.84
510.60
388.36
331.49
355.44
429.87
589.60
573.48
994.05
912.20
1045.86
825.98
539.02
375.89
582.49
743.31
726.65
440.39
424.89
387.71
2495.81
623.38
692.48
614.82
749.64
605.74
642.08
584.86
606.60
520.82
570.92
524.87
552.86
805.36
715.73
650.75
855.26
784.88
848.32
764.27
958.55
744.55
583.81
427.00
454.58
641.46
849.02
552.77
638.41
613.12
513.75
455.80
468.06
498.71
592.09
660.34
758.54
610.88
4110.50
499.63
472.75
587.25
706.35
682.83
852.72
768.69
917.40
830.80
762.44
497.18
587.71
1299.36
972.68
849.34
1009.62
902.91
633.93
878.78
1431.29
997.48
539.47
764.63
875.79
2105.63
755.88
530.70
553.27
425.70
657.77
613.93
619.64
570.27
662.75
643.23
802.93
724.96
1013.37
745.71
727.55
505.17
514.03
443.84
492.65
519.06
498.09
476.45
653.57
670.28
3983.01
634.84
778.49
726.60
654.86
604.44
681.81
539.85
679.44
555.57
717.45
649.15
758.85
1365.34
684.95
613.01
700.77
627.62
782.95
716.11
781.96
428.10
428.41
483.61
462.19
563.74
880.05
650.42
652.44
515.70
511.64
580.59
619.42
594.50
531.74
528.91
647.08
805.21
3700.85
1296.61
1455.15
993.52
859.62
456.17
499.52
446.92
430.24
375.92
489.10
404.35
519.53
479.64
497.71
419.93
471.43
431.93
622.04
636.39
717.50
685.71
544.93
431.56
461.45
1311.84
829.98
879.92
950.22
844.56
854.94
731.43
756.97
628.00
696.91
587.18
595.69
452.39
1090.93
495.02
630.83
483.56
676.56
596.69
789.74
692.57
781.52
768.20
952.97
886.71
987.59
868.61
815.42
462.91
472.69
403.01
500.90
403.89
425.11
431.92
668.69
638.07
777.79
1328.62
831.47
656.72
584.21
524.03
726.18
502.96
591.39
485.50
632.66
623.38
631.31
498.07
920.36
545.12
496.63
433.93
599.65
548.40
582.99
615.14
732.13
800.29
936.61
903.85
1062.98
1134.11
987.74
893.19
683.29
404.94
502.66
370.29
463.36
570.37
689.75
678.71
772.00
1347.61
777.80
653.62
695.75
637.65
658.88
578.36
692.83
713.92
966.62
1037.77
1042.39
527.49
1109.42
801.89
442.82
683.11
810.83
549.36
700.57
907.16
1036.46
776.14
835.61
641.42
3842.48
640.56
612.77
496.94
558.10
397.21
414.73
401.94
462.22
424.43
593.91
679.42
807.67
1364.14
576.47
420.81
397.25
507.05
673.84
532.06
636.85
581.65
655.12
524.29
522.49
442.28
732.84
767.90
950.37
861.93
891.52
648.07
476.24
513.40
736.74
807.05
790.87
593.35
3858.52
482.20
498.44
491.45
562.85
445.85
560.47
431.78
609.63
601.63
682.02
710.53
765.44
1405.76
810.33
575.44
430.02
369.56
514.76
603.02
731.14
611.58
739.01
746.43
796.42
693.13
791.67
693.84
687.86
707.36
698.05
607.41
651.40
593.14
717.07
634.68
635.29
507.70
3889.91
552.39
615.99
479.29
424.74
407.18
446.46
455.88
624.79
601.24
733.30
702.20
733.55
1379.72
603.70
511.44
608.28
511.44
647.32
680.95
747.88
575.34
680.28
648.23
744.80
706.09
992.34
777.84
852.76
493.39
481.79
560.38
513.15
413.56
624.61
597.17
606.31
532.66
3699.58
668.03
760.62
667.20
709.23
636.53
655.14
485.64
551.46
469.79
728.60
639.80
663.63
1181.61
604.05
510.72
646.82
554.46
723.82
763.93
864.11
771.96
659.91
600.65
660.78
568.33
767.59
601.66
571.65
452.57
483.64
671.21
963.12
873.30
998.70
793.10
791.89
459.45
4136.78
881.55
510.59
473.67
644.98
496.14
529.12
499.43
670.73
689.73
781.84
587.77
724.34
1415.34
816.90
559.68
597.29
598.10
780.60
654.78
650.33
503.08
469.94
449.07
552.98
617.08
934.97
851.64
895.50
760.71
792.56
632.39
600.76
564.91
546.74
438.08
457.48
397.06
3732.79
599.87
626.57
539.63
735.28
698.10
729.54
516.30
588.57
441.22
620.48
409.23
446.90
1168.02
600.04
476.64
664.13
549.10
620.06
705.38
881.85
743.47
776.81
585.93
669.61
600.42
877.28
922.00
1095.25
1126.83
1129.62
539.45
797.44
1272.43
674.89
439.33
761.46
780.77
1011.55
849.81
885.14
704.85
914.56
800.93
755.89
479.46
441.03
438.58
432.83
436.95
3565.55
697.58
762.40
702.19
639.54
602.56
509.67
458.62
458.04
394.83
527.34
566.39
614.87
1411.36
618.41
623.31
735.63
654.10
870.14
868.99
1036.97
966.63
789.23
613.22
511.64
3525.32
626.02
608.98
573.62
434.31
438.89
496.94
468.16
526.99
653.33
609.04
586.86
475.12
999.97
452.35
598.80
584.01
825.14
728.20
743.82
665.50
721.20
643.29
719.59
443.50
451.21
538.62
741.09
671.90
724.57
633.93
625.59
542.14
613.45
478.65
648.29
516.97
647.32
3509.85
710.63
661.17
844.30
731.92
806.88
699.65
721.76
529.20
600.35
622.06
634.40
691.26
1503.25
1049.15
791.36
433.72
544.62
581.39
586.97
404.36
549.38
548.83
584.56
602.65
3726.52
481.32
515.91
471.71
447.02
429.06
635.10
621.62
808.96
456.78
500.74
412.65
766.51
1430.47
1068.48
770.41
776.64
612.14
838.09
752.18
812.68
540.47
605.05
517.45
672.94
3317.81
654.37
506.17
544.12
464.84
576.83
576.27
568.44
493.27
440.42
488.29
448.43
454.05
1209.40
846.52
940.25
515.41
488.80
664.05
543.54
631.91
905.39
855.24
929.43
783.78
749.06
711.73
752.95
585.67
738.55
665.31
737.46
662.51
757.32
684.25
681.81
565.83
644.07
3439.00
616.18
577.12
772.34
637.36
638.61
538.63
618.00
714.11
766.91
616.49
711.97
619.41
1151.32
615.83
764.90
616.96
872.41
848.21
941.21
681.56
528.03
603.55
757.28
792.42
536.90
490.82
500.20
469.86
595.92
464.95
535.40
428.86
569.48
504.85
700.45
673.75
712.04
3381.13
728.69
637.79
670.96
539.23
726.61
715.96
990.48
908.56
1003.43
784.59
611.88
476.11
586.26
493.46
587.79
527.82
625.14
639.97
670.86
586.85
730.13
574.45
689.42
613.71
3548.11
651.06
799.24
687.11
658.77
420.32
455.26
410.15
589.24
586.27
622.13
484.83
449.85
1249.67
559.54
475.84
622.04
606.63
766.91
667.14
737.54
693.86
844.49
658.11
742.35
599.78
891.64
691.32
819.24
572.26
453.43
411.39
448.01
407.27
515.26
513.21
603.26
619.01
3406.37
863.24
779.24
566.62
497.26
433.14
584.44
518.46
621.78
665.99
691.06
689.98
804.77
1234.41
825.77
752.52
958.75
836.97
912.10
684.47
555.24
700.86
764.51
431.62
708.04
843.65
956.93
724.60
667.37
373.03
564.93
550.28
661.74
570.35
567.13
580.91
817.41
731.27
3440.50
601.93
655.22
538.48
590.97
494.48
511.17
523.34
478.94
604.95
646.57
466.57
582.65
1193.16
907.16
877.39
1087.34
930.30
983.87
614.13
541.57
487.63
525.42
506.76
592.18
3358.79
924.77
908.55
969.15
681.38
639.49
582.24
682.57
606.13
610.60
449.94
541.90
483.33
1120.28
630.78
525.40
344.75
448.56
474.27
655.92
647.57
789.94
750.09
710.50
504.35
517.13
608.25
600.54
691.83
779.84
706.79
699.14
498.72
493.72
469.81
635.87
555.26
599.96
3355.99
606.74
486.26
604.06
466.48
548.03
619.68
693.29
563.80
790.75
723.91
981.89
877.02
1402.11
698.86
570.47
438.62
441.98
351.44
413.84
490.43
653.31
523.06
613.89
560.17
623.45
773.82
896.01
683.73
681.21
507.91
522.34
466.36
539.52
510.51
500.43
561.18
602.43
3277.28
684.64
623.11
727.24
631.07
735.56
493.17
543.02
517.28
623.81
761.40
1043.60
1046.75
1555.78
840.60
556.05
768.89
523.46
438.48
595.45
636.25
788.61
608.92
700.17
634.38
3371.25
846.84
786.07
555.84
469.87
419.97
541.99
530.19
648.56
488.72
693.27
643.34
790.87
1273.56
869.91
697.37
593.67
427.04
593.03
511.75
549.35
568.13
657.30
600.72
660.95
400.73
534.45
464.36
762.75
843.96
1080.24
811.86
662.21
505.84
470.59
480.83
483.87
448.64
2734.84
507.98
671.41
769.17
788.12
643.69
515.54
444.77
479.24
446.84
635.08
696.68
949.28
1020.76
943.63
804.88
989.56
865.33
1080.61
810.53
805.48
632.95
600.51
368.54
450.29
2100.53
486.19
383.86
594.18
501.54
649.89
564.99
711.15
573.00
628.10
498.66
539.72
448.96
728.01
520.27
778.61
949.89
1089.70
754.25
648.41
393.35
388.35
407.61
475.62
538.07
3473.06
693.60
702.15
567.31
613.20
585.62
698.42
630.82
699.57
600.75
664.50
651.55
705.40
1195.38
739.80
608.96
554.63
416.10
533.24
493.16
637.11
516.37
641.20
628.68
698.80
615.54
852.45
574.51
702.92
554.19
781.57
897.62
1303.05
948.35
598.38
1088.22
1153.71
546.08
866.48
566.08
730.97
732.10
968.61
826.75
975.82
745.71
564.59
483.73
730.45
682.64
623.21
618.54
554.21
496.74
519.77
502.63
512.54
512.72
533.43
448.12
632.67
519.22
717.34
3234.26
742.84
661.55
670.26
589.39
640.18
518.73
619.04
641.45
647.43
564.86
669.16
663.91
1451.63
678.33
633.26
498.02
670.27
692.77
883.31
701.85
626.28
489.39
481.56
549.79
672.99
637.13
728.70
687.65
802.64
686.35
799.46
778.52
812.92
592.83
705.96
507.13
490.53
3187.92
516.36
486.93
532.17
559.88
765.59
583.37
542.71
431.85
604.79
630.34
556.66
618.43
1352.88
828.34
921.82
705.67
836.59
862.93
989.02
830.44
998.18
847.90
805.95
497.76
439.78
555.15
532.11
499.02
702.09
616.28
607.71
695.51
671.78
551.84
516.79
468.40
575.66
3206.22
702.04
619.01
748.57
609.86
604.56
475.11
547.75
516.44
923.78
901.34
812.20
526.71
1135.07
585.93
744.64
967.40
1148.67
920.39
600.92
1004.15
1125.04
673.13
463.35
455.79
2735.77
481.57
728.00
865.41
994.88
782.78
710.09
591.87
637.39
588.29
602.88
484.10
526.27
730.56
597.69
516.89
637.21
535.06
722.35
706.69
784.14
682.62
728.17
482.60
551.81
577.60
831.47
699.53
799.49
730.63
766.93
569.98
599.45
525.96
489.00
429.31
509.62
513.12
3335.84
739.81
803.74
748.15
928.35
764.33
884.49
706.32
663.25
375.99
606.65
461.20
520.12
1148.39
801.03
556.60
783.29
633.00
764.90
455.61
490.13
448.00
534.00
454.91
516.74
421.36
662.43
601.56
726.52
575.82
555.74
497.21
600.04
620.36
760.82
613.10
798.51
585.49
3226.72
690.92
935.53
951.35
941.65
654.21
701.70
541.71
579.09
457.81
506.28
456.07
544.87
1170.87
719.21
583.37
622.90
538.67
589.08
523.02
691.50
612.30
698.88
589.82
597.57
387.65
652.73
536.45
622.49
560.09
677.43
563.25
732.78
682.38
829.48
748.39
783.79
635.38
3196.44
433.57
518.01
475.71
552.93
501.77
690.14
765.21
871.36
687.07
728.40
534.33
653.53
1162.04
514.44
407.83
526.35
458.14
602.04
928.91
1351.49
1155.63
889.06
483.28
434.68
2130.09
921.85
790.49
771.42
632.59
497.40
465.34
526.40
493.84
579.89
510.95
719.09
566.54
980.87
612.32
573.99
448.39
708.18
589.99
673.93
694.02
821.19
695.35
740.90
700.75
714.92
716.69
617.97
527.60
605.70
527.09
597.99
577.96
602.93
479.24
614.02
569.19
678.36
3040.50
656.69
556.89
595.79
556.07
683.12
671.96
831.52
733.16
830.90
554.82
487.46
468.82
1072.61
498.51
625.48
693.14
896.59
704.82
745.53
708.70
782.24
729.02
791.46
652.31
637.38
485.51
470.02
523.65
477.05
501.56
591.64
527.46
682.24
609.43
667.94
598.29
648.52
3075.34
610.49
460.00
539.71
524.74
633.82
659.92
809.25
661.94
757.37
633.82
575.05
583.22
1246.75
719.57
748.68
682.83
790.27
731.01
872.22
903.63
966.48
763.63
570.93
430.12
412.03
529.89
536.36
466.87
716.19
682.06
784.89
724.36
769.12
705.83
767.88
622.00
633.65
2981.51
479.96
483.82
510.09
427.75
507.02
534.75
598.90
618.93
711.26
626.38
744.19
553.80
1172.79
586.38
706.81
682.31
838.93
652.66
667.16
470.34
552.97
453.34
629.98
751.62
800.32
757.45
730.22
682.44
649.24
568.49
720.06
573.56
651.91
659.83
901.37
921.98
845.71
3022.44
588.10
475.38
543.20
513.15
815.22
840.95
976.99
1030.61
1051.32
849.20
1036.45
777.60
591.81
671.42
940.61
765.19
498.22
597.60
835.42
606.92
719.82
715.42
822.12
701.96
3072.10
797.93
754.55
688.43
728.75
703.64
774.09
690.32
773.25
555.40
646.87
582.24
586.43
1046.01
541.72
533.13
555.28
445.38
494.03
457.14
587.01
571.09
571.05
484.89
582.02
564.08
768.50
725.44
702.18
693.40
735.18
596.84
654.82
615.45
605.23
495.04
610.43
632.64
3052.11
879.98
989.41
702.34
726.17
524.64
526.57
516.11
608.18
519.74
717.13
775.54
869.38
1384.48
1069.78
767.76
734.78
482.39
527.81
582.08
518.05
506.16
541.37
451.57
783.19
2987.79
745.94
537.62
596.33
635.09
723.56
785.26
947.86
749.30
772.11
620.07
488.59
1041.42
1599.87
687.73
446.84
495.95
535.39
501.70
634.58
558.71
690.25
671.87
750.66
717.44
2947.19
723.21
733.03
565.70
595.49
589.72
670.30
719.80
861.03
803.40
713.83
457.70
442.57
1028.61
582.30
539.58
691.68
827.03
1028.13
754.93
618.61
542.50
663.27
565.92
458.91
544.21
922.95
626.02
820.65
867.49
822.32
607.18
639.60
533.81
623.10
561.70
644.71
610.88
614.02
669.32
656.33
577.35
683.49
581.11
669.99
633.06
738.72
712.71
923.72
710.71
562.46
3132.98
503.85
632.93
976.97
991.90
1380.25
1306.87
1255.57
928.47
603.48
754.56
930.21
2737.59
761.79
538.09
480.36
588.00
696.41
654.89
584.25
562.33
566.48
552.56
665.95
625.04
1078.76
693.46
680.54
565.88
536.32
454.93
652.80
599.45
767.70
748.22
775.25
680.82
2969.20
612.36
603.51
616.91
678.82
567.63
678.19
632.19
770.18
615.72
654.12
580.96
584.73
966.32
559.98
563.61
782.98
736.84
820.64
736.52
687.73
523.92
607.22
491.93
584.40
554.56
880.65
564.92
703.29
667.11
782.45
670.86
708.66
702.19
732.51
712.84
604.47
512.34
545.67
511.43
428.10
554.64
801.08
870.61
1052.10
955.09
1004.10
827.53
877.13
729.97
639.23
2115.64
548.29
434.20
641.31
598.71
646.44
584.17
628.17
475.72
491.20
531.14
528.39
553.81
969.30
558.06
708.83
649.12
701.26
719.82
812.03
728.19
791.82
677.54
784.30
641.24
826.79
775.31
496.59
474.51
536.30
487.27
669.08
559.67
557.05
454.93
901.04
972.41
1065.70
2965.12
858.56
527.89
612.57
592.38
528.69
542.86
635.07
543.36
546.75
552.39
579.21
515.43
960.52
681.77
729.12
725.53
844.68
735.00
871.49
873.12
876.54
789.83
775.71
493.61
627.63
547.42
617.53
651.71
712.19
638.14
777.35
802.37
756.47
675.79
755.81
640.63
745.41
2809.57
634.23
549.23
724.04
619.31
596.77
606.02
637.61
605.43
664.03
556.25
609.47
556.83
1274.40
541.74
652.46
631.86
699.56
594.90
653.49
609.76
636.74
557.29
694.72
606.39
721.98
764.69
683.41
565.48
719.82
553.62
713.51
666.22
841.63
717.07
864.53
673.92
758.02
2734.92
903.07
842.94
851.48
609.38
470.71
768.28
662.10
429.27
566.72
664.35
754.48
736.61
1368.09
616.84
617.50
589.14
779.44
579.93
738.07
586.62
555.87
506.10
619.10
505.96
608.97
660.51
657.31
597.58
683.89
651.30
745.23
621.10
670.54
535.81
736.53
752.03
876.61
2776.51
997.53
831.73
731.08
469.86
606.01
472.89
649.12
826.29
1117.43
958.64
1104.35
922.66
1152.35
784.66
695.53
482.92
475.11
639.55
725.23
859.03
708.09
440.38
645.07
661.38
2802.70
405.93
552.76
485.00
634.32
624.87
596.28
637.34
718.50
814.59
862.69
732.23
728.72
751.23
674.99
643.56
669.20
567.97
624.60
603.48
738.30
750.44
915.30
804.79
846.74
601.55
731.45
617.53
912.51
847.55
796.29
577.66
667.05
493.18
477.19
481.28
495.30
425.37
2817.47
450.10
673.30
537.87
719.19
797.01
876.43
643.79
765.01
686.97
704.43
571.57
670.08
1141.20
642.11
585.29
717.46
579.25
688.82
692.53
787.03
795.04
838.83
736.72
997.67
903.03
1155.62
731.12
536.74
486.69
544.14
583.96
708.66
577.92
527.61
424.35
536.11
497.57
3039.42
592.44
625.13
563.66
613.56
546.89
624.46
560.37
633.69
589.41
715.81
596.74
636.40
881.05
796.10
638.51
587.97
535.41
633.64
621.56
721.03
670.13
768.40
655.50
628.12
628.81
842.44
676.13
716.88
565.51
596.35
685.44
662.53
549.16
634.31
543.04
689.40
745.01
2812.27
718.86
750.28
626.73
726.98
674.66
773.15
608.71
644.16
638.83
554.55
513.78
483.32
1147.61
673.50
527.54
581.01
622.30
591.39
588.98
720.43
655.09
797.57
650.10
620.32
571.96
869.70
616.88
691.50
568.22
683.74
676.73
710.33
604.33
787.19
590.67
527.69
466.95
2701.97
590.47
668.43
527.79
720.42
576.69
738.09
702.22
772.17
660.53
771.47
674.35
716.37
1137.53
585.37
611.11
691.68
746.14
837.51
719.44
791.86
512.91
516.55
509.51
644.58
844.41
931.66
713.23
739.43
647.56
805.76
609.60
660.31
640.16
680.26
615.90
726.48
687.84
2781.40
841.69
778.25
530.41
548.43
506.94
464.32
568.77
763.95
796.03
816.79
650.33
536.89
1077.05
563.85
479.74
720.96
670.55
846.80
714.39
772.42
696.34
828.20
809.62
908.32
627.79
688.62
393.08
569.85
512.54
710.98
594.80
728.47
687.14
757.19
637.68
754.46
646.69
2692.88
754.76
756.17
647.24
718.29
702.51
825.69
758.33
712.04
618.53
615.37
475.47
595.57
1119.58
662.32
625.12
712.01
535.30
583.84
470.31
470.15
484.79
567.61
419.17
537.77
514.30
785.96
578.02
674.50
600.43
871.86
897.89
1177.23
1056.82
813.58
551.82
695.21
526.29
1363.27
598.87
768.95
696.96
592.74
342.47
581.61
412.31
677.90
571.07
652.30
409.84
518.71
575.11
831.89
695.82
743.09
638.83
666.80
672.36
814.96
614.24
831.05
673.67
678.43
2521.76
709.17
491.57
607.44
490.30
584.07
416.46
523.72
431.03
560.60
552.89
735.40
530.31
1295.40
639.72
771.80
670.64
843.94
775.32
1036.56
865.39
1002.79
718.34
675.15
494.23
576.03
491.32
654.21
597.13
782.86
622.93
797.41
607.14
698.49
602.40
708.01
627.54
736.55
2580.20
862.97
740.60
767.61
521.91
543.18
508.33
440.29
500.81
579.28
530.99
654.77
530.03
1409.95
701.51
723.55
694.53
675.46
719.03
774.82
679.39
855.69
814.82
1184.72
936.75
825.36
450.08
503.91
492.63
593.76
655.51
792.55
807.23
851.06
791.00
910.41
617.40
716.34
2288.76
471.37
467.32
610.06
442.87
654.88
614.88
586.46
694.83
715.84
590.31
543.57
471.75
838.15
509.32
578.39
458.78
453.14
415.47
602.78
611.06
731.96
714.27
764.93
711.48
714.26
547.93
573.30
618.02
727.29
613.03
731.60
567.29
694.22
578.47
669.63
639.85
682.68
2280.88
763.58
713.72
809.68
661.48
657.64
540.41
762.18
775.59
877.45
733.59
881.97
567.87
1253.99
716.10
871.91
678.79
755.58
754.03
857.84
700.35
866.36
614.68
613.95
418.67
461.90
476.85
460.28
403.07
507.53
405.34
513.27
479.64
532.61
487.95
589.55
543.82
609.50
2498.41
870.84
793.55
938.13
664.67
886.23
697.31
736.46
712.46
706.40
619.75
570.08
603.64
1369.81
695.27
877.40
798.74
713.04
513.85
520.66
486.73
756.98
636.76
879.17
779.08
804.87
782.49
833.28
862.49
1013.42
600.15
504.54
594.49
525.35
423.59
551.81
547.28
618.28
2449.11
632.16
486.84
615.97
569.25
761.37
764.69
935.50
849.07
893.52
789.49
752.77
492.97
1152.45
596.58
693.08
654.54
682.25
437.15
459.28
379.76
684.01
715.32
808.06
635.25
603.66
570.75
543.69
439.51
665.36
797.66
888.35
865.29
1088.74
765.45
571.80
400.98
459.31
2406.19
614.19
546.07
614.51
602.92
796.41
838.12
1051.24
964.67
923.03
762.21
652.85
464.30
647.15
405.60
504.45
474.41
553.54
432.53
560.40
666.19
746.78
833.59
905.47
773.09
817.46
629.05
534.92
473.52
515.55
471.96
622.99
630.55
862.72
814.58
837.87
564.85
635.94
2417.27
827.72
711.69
712.55
473.45
513.34
495.87
679.89
618.39
804.32
608.32
523.97
552.12
1361.69
689.03
624.60
546.09
628.35
548.18
670.77
579.41
671.83
622.33
687.14
662.69
775.71
936.07
916.41
727.99
750.61
791.92
820.69
670.33
742.95
555.72
488.50
482.70
575.90
2162.09
544.83
668.55
603.53
382.70
513.20
421.79
569.80
489.81
530.91
498.49
630.90
500.34
1387.33
780.42
930.53
761.47
740.83
732.90
883.39
778.38
921.51
711.71
760.74
556.73
626.91
511.71
607.53
811.40
507.79
441.29
564.25
639.88
752.98
605.10
691.82
596.27
656.49
2381.61
1168.47
1153.02
1209.88
897.63
752.91
538.25
555.01
643.02
853.52
678.71
661.60
2388.59
518.06
436.21
424.17
429.82
482.25
457.65
578.45
499.11
645.48
616.50
895.00
730.07
1436.90
732.03
854.63
710.44
667.23
537.07
696.54
541.55
569.51
363.70
466.02
467.78
626.38
675.16
671.24
608.11
743.51
578.85
614.67
457.43
596.36
581.34
676.84
661.16
780.36
2240.92
859.92
673.52
807.13
690.69
710.07
637.70
680.52
527.85
592.60
440.66
636.80
475.29
1220.31
526.31
594.19
401.95
427.59
386.37
626.43
649.90
768.74
642.06
773.44
630.13
823.85
707.86
683.29
751.08
833.06
761.03
900.69
749.06
834.60
770.96
879.69
685.86
767.50
2198.98
599.37
534.07
528.59
382.77
403.74
520.70
709.92
591.27
615.95
490.16
592.09
654.95
1386.19
774.14
778.06
447.48
486.76
463.86
554.23
639.90
709.69
634.39
760.69
639.11
635.29
541.42
580.51
438.61
523.78
624.79
729.42
621.08
734.93
619.77
708.41
724.01
826.29
2140.21
645.94
671.03
644.66
588.44
598.76
614.36
675.14
609.52
643.88
646.62
754.26
618.41
1394.80
647.46
751.30
626.69
549.39
451.93
526.01
497.98
664.89
609.54
846.06
773.39
758.43
778.73
708.93
635.22
737.53
660.75
746.55
620.53
702.17
477.14
524.30
326.46
394.03
2001.30
488.47
473.68
576.06
560.29
632.02
543.36
640.09
584.05
781.80
654.69
528.84
382.68
1072.52
557.48
985.42
1001.42
931.68
727.53
1140.97
1294.19
1447.86
808.93
514.52
807.36
1084.60
411.08
481.09
464.71
581.10
424.38
596.48
547.77
604.98
519.35
557.54
650.58
680.90
765.40
1030.34
951.91
984.67
658.14
648.36
391.99
534.90
417.87
519.43
423.01
447.50
2088.28
450.43
585.01
839.69
639.28
687.03
594.24
799.25
760.71
821.33
726.11
629.19
532.25
1274.57
612.25
689.94
480.44
569.55
366.02
530.53
650.54
915.19
952.00
1072.95
591.21
2378.47
408.20
625.69
748.93
737.95
524.00
469.32
512.08
583.81
620.30
779.96
637.10
791.47
1374.01
859.24
767.06
672.17
607.11
737.98
465.12
471.74
384.67
566.87
599.45
756.79
633.80
791.51
418.92
409.54
473.37
638.00
711.48
780.26
696.22
809.25
619.31
584.20
417.08
2109.28
757.71
961.51
821.92
903.42
722.15
797.31
706.30
666.46
567.12
609.39
345.99
460.68
1243.82
783.42
682.81
741.29
661.65
565.25
381.00
426.69
423.33
510.32
416.88
537.82
500.21
651.11
497.69
593.58
477.37
515.23
522.41
667.88
568.04
689.43
660.68
799.70
672.52
2348.83
671.09
750.75
569.20
559.77
491.73
648.36
583.49
644.60
671.63
732.65
599.68
689.85
1285.01
676.59
538.69
633.19
504.53
642.71
456.56
608.52
523.54
632.59
643.10
649.12
639.14
799.68
590.81
732.14
666.87
816.36
766.24
746.61
692.78
795.17
791.69
801.05
439.88
1855.27
462.61
700.88
709.68
850.55
547.44
605.06
512.88
651.15
620.57
643.45
530.61
885.88
1429.14
989.14
769.69
992.07
1001.22
950.66
458.91
513.26
870.52
630.24
428.07
433.22
1788.89
749.12
681.95
832.94
768.45
881.48
818.77
946.75
777.75
865.90
589.14
696.35
571.15
1368.17
578.39
532.36
394.80
458.84
464.90
683.89
602.24
655.44
574.11
636.69
493.77
573.72
609.09
631.11
574.56
776.00
608.26
803.42
665.27
751.52
684.34
861.03
745.65
844.74
1931.52
929.77
838.19
1051.45
740.40
844.84
842.69
1136.48
1143.66
1183.38
613.04
566.60
1837.53
427.88
524.57
611.94
558.29
451.93
385.15
540.61
449.58
579.38
451.65
512.22
408.37
748.69
510.92
651.98
554.41
615.89
488.66
492.75
570.46
646.76
626.33
441.96
391.78
632.99
911.33
1022.86
814.35
848.59
773.99
1021.73
993.71
937.70
605.79
661.20
474.66
474.25
1390.09
712.95
656.68
778.46
732.16
826.28
637.21
819.49
651.54
748.72
470.58
527.28
412.45
1319.62
626.96
697.47
656.74
791.12
624.40
590.96
442.97
512.84
407.33
537.39
407.79
462.44
624.86
759.31
621.71
703.61
536.37
684.50
577.39
632.10
494.87
520.25
519.65
590.68
1566.97
610.61
502.99
669.00
639.77
712.91
564.95
635.16
534.06
664.92
649.24
719.69
638.85
1457.20
722.94
823.30
859.23
1162.85
1209.22
1106.89
414.35
1500.47
1395.35
482.62
707.42
1006.87
767.55
612.42
624.79
794.59
742.75
896.50
732.00
729.90
540.41
719.26
826.07
3091.86
1184.36
1025.70
659.62
572.47
373.33
387.70
361.58
347.08
452.22
617.00
541.19
3914.49
542.44
695.48
624.75
725.29
590.52
639.24
581.19
594.53
578.53
609.40
586.32
613.03
1231.27
834.58
756.63
912.53
912.93
988.26
792.44
687.96
446.30
563.09
459.57
682.46
656.11
726.35
676.81
1048.80
883.84
974.75
721.63
586.13
504.81
703.27
508.97
475.25
459.04
3910.94
535.21
587.43
583.87
712.85
566.74
646.27
503.64
469.23
363.80
399.96
438.10
627.64
1157.97
636.58
581.45
707.28
714.34
905.68
943.48
1136.14
889.77
839.45
554.36
622.29
1325.96
742.02
608.37
731.93
574.26
578.05
567.53
612.93
641.97
655.11
584.25
693.99
619.40
1435.11
601.82
573.64
448.70
572.83
497.96
727.73
748.10
800.75
635.33
483.63
349.32
562.22
643.66
789.61
680.65
927.59
692.49
837.71
686.74
774.71
665.47
761.67
632.86
676.60
1396.37
726.20
604.37
626.09
564.11
767.11
759.65
845.77
498.80
572.37
700.06
436.50
508.21
1329.30
607.93
774.17
742.14
924.80
742.13
913.46
798.90
911.12
535.98
575.37
587.79
742.47
831.57
791.43
439.12
1001.94
817.78
535.10
593.21
840.15
694.28
765.89
536.81
709.77
1598.93
1086.40
1009.95
921.33
720.40
705.61
633.00
623.43
450.61
608.78
537.04
764.56
652.09
900.51
541.13
542.23
440.44
477.89
421.13
475.67
372.81
599.37
604.22
767.65
661.59
705.12
757.67
805.97
595.36
699.69
665.23
690.63
562.31
619.47
446.97
539.70
457.45
480.57
1402.20
691.72
548.86
700.23
510.37
639.52
661.16
810.72
802.00
660.71
641.51
728.81
539.21
1314.12
425.42
498.26
694.98
853.85
704.97
775.09
576.91
713.22
700.21
814.71
712.86
822.58
665.77
525.14
460.51
594.66
461.82
559.85
368.30
428.62
448.77
547.61
398.62
428.07
1338.42
887.90
774.20
820.95
555.19
796.22
587.91
726.02
522.39
594.95
547.31
770.98
832.65
1527.22
974.17
901.63
388.19
435.71
428.32
570.98
571.83
675.87
513.06
638.88
494.97
698.74
860.35
868.74
702.83
539.40
384.48
618.03
515.37
646.98
608.81
697.75
683.94
758.78
1391.94
671.15
470.93
784.12
764.59
962.63
814.88
902.04
639.47
609.06
427.33
642.08
564.90
1201.88
516.54
734.83
625.38
807.40
560.94
565.59
501.18
492.79
383.67
497.84
539.51
768.27
818.36
620.47
448.48
476.72
466.62
777.57
809.27
573.46
482.56
758.28
785.59
845.72
1351.47
660.36
596.75
782.74
702.30
840.60
810.17
758.83
522.29
497.83
468.63
634.65
612.54
1330.03
559.14
736.62
688.21
901.39
846.68
753.05
556.66
486.81
438.02
526.78
530.41
715.51
747.58
777.18
640.20
657.76
529.87
609.38
532.66
627.14
472.31
651.12
548.76
795.34
1325.14
790.94
707.21
752.38
566.11
606.09
520.66
634.50
501.24
703.87
636.30
852.80
639.72
1310.38
712.13
747.67
463.96
639.18
464.17
678.20
600.30
778.92
866.40
998.07
801.99
1980.44
820.75
990.62
664.58
584.63
391.08
602.51
690.17
531.52
472.55
422.89
463.48
576.46
1292.90
723.91
581.98
569.75
403.29
514.22
537.02
754.09
690.88
811.70
715.05
829.27
776.64
1153.99
977.46
882.72
512.00
473.97
431.18
536.90
526.46
687.10
630.01
761.34
693.50
3149.23
714.40
599.97
459.79
575.00
578.41
865.67
860.49
940.71
812.04
765.85
650.72
613.67
797.19
591.88
500.22
581.38
586.57
638.20
591.35
626.39
346.93
464.46
459.06
545.90
413.28
644.19
516.21
677.02
482.88
565.52
503.43
660.88
616.79
864.43
704.43
826.55
763.13
3777.70
667.14
701.53
606.61
676.75
535.64
764.35
564.35
674.63
564.77
707.57
769.06
842.23
1247.08
506.19
445.87
589.94
671.92
840.90
448.27
615.17
527.44
500.64
516.48
720.80
706.63
891.64
702.12
848.27
654.57
785.76
640.77
708.78
609.01
695.97
536.19
680.29
629.03
3693.44
622.50
660.64
648.55
688.36
647.26
729.39
